Data from Philips_4000K_7,3W_1535Lumen_250ms_1__1__15-25-36-357.txt Node

Date: Thu Dec 18 15:25:36 CET 2025
User: Stefan
Spectrometer: ?
Trigger mode: 0
Integration Time (sec): 2,500000E-1
Scans to average: 1
Electric dark correction enabled: true
Nonlinearity correction enabled: true
Boxcar width: 0
XAxis mode: Wavelengths
Number of Pixels in Spectrum: 3648
>>>>>Begin Spectral Data<<<<<
Wavelength [nm]	Power [W]
210	0
211	0
212	0
213	0
214	0
215	0
216	0
217	0
218	0
219	0
220	0
221	0
222	0
223	0
224	0
225	0
226	0
227	0
228	0
229	0
230	0
231	0
232	0
233	0
234	0
235	0
236	0
237	0
238	0
239	0
240	0
241	0
242	0
243	0
244	0
245	0
246	0
247	0
248	0
249	0
250	0
251	0
252	0
253	0
254	0
255	0
256	0
257	0
258	0
259	0
260	0
261	0
262	0
263	0
264	0
265	0
266	0
267	0
268	0
269	0
270	0
271	0
272	0
273	0
274	0
275	0
276	0
277	0
278	0
279	0
280	0
281	0
282	0
283	0
284	0
285	0
286	0
287	0
288	0
289	0
290	0
291	0
292	0
293	0
294	0
295	0
296	0
297	0
298	0
299	0
300	0
301	0
302	0
303	0
304	0
305	0
306	0
307	0
308	0
309	0
310	0
311	0
312	0
313	0
314	0
315	0
316	0
317	0
318	0
319	0
320	0
321	0
322	0
323	0
324	0
325	0
326	0
327	0
328	0
329	0
330	0
331	0
332	0
333	0
334	0
335	0
336	0
337	0
338	0
339	0
340	0
341	0
342	0
343	0
344	0
345	0
346	0
347	0
348	0
349	0
350	0
351	0
352	0
353	0
354	0
355	0
356	0
357	0
358	0
359	0
360	0
361	0
362	0
363	0
364	0
365	0
366	0
367	0
368	0
369	0
370	0
371	0
372	0
373	0
374	0
375	0
376	0
377	0
378	0
379	0
380	0
381	0
382	0
383	0
384	0
385	0
386	0
387	0
388	0
389	0
390	0
391	0
392	0
393	0
394	0
395	0
396	0
397	0
398	0
399	0
400	0
401	0
402	0
403	0
404	0
405	0
406	0
407	0
408	0
409	0
410	0
411	0
412	0
413	0
414	0
415	0
416	0
417	1.5811190284562e-10
418	1.92910615741189e-10
419	3.04505842899474e-10
420	2.89573792735882e-10
421	3.54897881657899e-10
422	3.42246694836629e-10
423	4.41470124974699e-10
424	4.14606316187646e-10
425	4.48459492930812e-10
426	5.04672619341035e-10
427	6.44706827230945e-10
428	6.12363054130884e-10
429	7.75394629648381e-10
430	7.12048297732897e-10
431	7.96076872849622e-10
432	9.6158036056778e-10
433	1.128705842237e-09
434	9.81591229044966e-10
435	1.2906191503666e-09
436	1.31821923094759e-09
437	1.38797223312779e-09
438	1.41694210390707e-09
439	1.63268284724376e-09
440	1.63517869684162e-09
441	1.68919615466687e-09
442	1.87743996499268e-09
443	2.22464393281341e-09
444	2.25051456142359e-09
445	2.50763074968693e-09
446	2.45822582146344e-09
447	2.8221644056972e-09
448	2.82180324586503e-09
449	3.26141811795467e-09
450	3.41800696517678e-09
451	3.7157532705422e-09
452	3.00861378199338e-09
453	2.96046459559846e-09
454	2.83176182699019e-09
455	2.63859289507715e-09
456	2.30299880705486e-09
457	2.08586857037663e-09
458	1.95255180153608e-09
459	1.65066041635221e-09
460	1.44400621653836e-09
461	1.36198873555647e-09
462	1.30790048454608e-09
463	1.15102345215929e-09
464	1.19706880441108e-09
465	1.11532694643484e-09
466	9.84915711586609e-10
467	1.00062659207448e-09
468	9.3052900116406e-10
469	8.85020139215619e-10
470	8.20389404496083e-10
471	7.46415410545854e-10
472	7.08736615687892e-10
473	6.5096426120623e-10
474	6.13507936790171e-10
475	5.80803125910271e-10
476	5.31011099875087e-10
477	5.19901410066862e-10
478	5.04558635174888e-10
479	4.89971850154794e-10
480	4.68049193270529e-10
481	5.01759543045389e-10
482	4.74586680817006e-10
483	4.73585161462289e-10
484	4.88311356563489e-10
485	4.91561831272203e-10
486	4.99352625957625e-10
487	5.08299231184037e-10
488	5.42847769058669e-10
489	5.59773220068299e-10
490	5.52347764062636e-10
491	5.93380856264975e-10
492	6.24585629239615e-10
493	6.69568652752132e-10
494	7.16152008552942e-10
495	7.42397770327991e-10
496	8.0121019861894e-10
497	8.72163362023849e-10
498	9.19221585266566e-10
499	1.00335576536845e-09
500	1.09428098359768e-09
501	1.16110600869144e-09
502	1.20918198167511e-09
503	1.29970437419504e-09
504	1.41091356245292e-09
505	1.48507358156916e-09
506	1.57718517400913e-09
507	1.59484130241258e-09
508	1.6838968551754e-09
509	1.75303953297873e-09
510	1.8522178284091e-09
511	1.87732255715112e-09
512	1.97581701212134e-09
513	2.03280011941117e-09
514	2.14503995367511e-09
515	2.18011330670771e-09
516	2.23149086492417e-09
517	2.28345789918174e-09
518	2.30761222860668e-09
519	2.35237432207376e-09
520	2.37640126258851e-09
521	2.46027458611334e-09
522	2.51356000511307e-09
523	2.58652158773231e-09
524	2.64860609318038e-09
525	2.64855741860228e-09
526	2.59775540633305e-09
527	2.63491832413723e-09
528	2.67020149901655e-09
529	2.69901739702368e-09
530	2.65300420969867e-09
531	2.71846949373902e-09
532	2.69927803647592e-09
533	2.78898919201627e-09
534	2.79170531783234e-09
535	2.73754063697846e-09
536	2.75764365089334e-09
537	2.74601825373732e-09
538	2.74846258584402e-09
539	2.72907612054055e-09
540	2.79201606762007e-09
541	2.79084292201505e-09
542	2.77536209893551e-09
543	2.72502119061305e-09
544	2.75951370798434e-09
545	2.69091803839263e-09
546	2.74894280154353e-09
547	2.77785891573158e-09
548	2.78943230833542e-09
549	2.76101479646399e-09
550	2.77741588535929e-09
551	2.75884298941166e-09
552	2.71318316382604e-09
553	2.71200682010715e-09
554	2.71568878944829e-09
555	2.69027581851505e-09
556	2.68093004664633e-09
557	2.67698496255397e-09
558	2.66390643126976e-09
559	2.65360306269045e-09
560	2.70729553325676e-09
561	2.66716926667221e-09
562	2.65971502898012e-09
563	2.6846911294824e-09
564	2.64105741767315e-09
565	2.70221372787092e-09
566	2.60616646282398e-09
567	2.62003707332146e-09
568	2.57694325361174e-09
569	2.58539003411967e-09
570	2.60511901080313e-09
571	2.60468684327696e-09
572	2.56754279567346e-09
573	2.55057071646546e-09
574	2.48268747116935e-09
575	2.57833233674867e-09
576	2.54119280751699e-09
577	2.53628541246464e-09
578	2.52568873448286e-09
579	2.51281566392658e-09
580	2.46076551751418e-09
581	2.48746746939198e-09
582	2.45981913250035e-09
583	2.5045507851907e-09
584	2.43672555153923e-09
585	2.4461245309636e-09
586	2.42084018541973e-09
587	2.38558619431804e-09
588	2.36998887268975e-09
589	2.36022201901156e-09
590	2.32247445388047e-09
591	2.31318801508532e-09
592	2.31784811657289e-09
593	2.25405629505768e-09
594	2.23365140605336e-09
595	2.22873814053499e-09
596	2.16983641089871e-09
597	2.20113532846899e-09
598	2.20296724910849e-09
599	2.16856299354611e-09
600	2.11704277869295e-09
601	2.09817162080034e-09
602	2.09596836321914e-09
603	2.07508058380567e-09
604	2.06251927703522e-09
605	2.03619213767385e-09
606	2.01818122870002e-09
607	2.24360060133537e-09
608	2.76751402970256e-09
609	2.74052258473836e-09
610	2.41121864279018e-09
611	2.43069459976259e-09
612	3.29263613723083e-09
613	4.13268591916913e-09
614	3.77186004274348e-09
615	2.94036528874702e-09
616	2.37537474429964e-09
617	2.08675823067646e-09
618	2.07297480906056e-09
619	2.03551633700726e-09
620	1.97179371629664e-09
621	1.90836267898552e-09
622	1.84388549811802e-09
623	1.87462765953404e-09
624	1.9053143732222e-09
625	1.9319464680089e-09
626	1.95375309475694e-09
627	1.97111925869955e-09
628	2.19117045606629e-09
629	3.45138589399367e-09
630	6.31347612630427e-09
631	6.57970636327455e-09
632	4.82898884561936e-09
633	3.58978039223995e-09
634	4.35568211468396e-09
635	4.90064730508353e-09
636	3.6329056622775e-09
637	2.40688140331662e-09
638	1.68890225398063e-09
639	1.27754874037559e-09
640	1.12276828009035e-09
641	1.06524512128927e-09
642	1.00756940492025e-09
643	9.86596713377216e-10
644	9.61371477846355e-10
645	1.00530058347359e-09
646	1.30384279748127e-09
647	1.79087829524295e-09
648	1.62229704957467e-09
649	1.24606258725796e-09
650	1.05498991466673e-09
651	9.31072389547754e-10
652	9.04077171382438e-10
653	8.31989164001992e-10
654	7.77712265425785e-10
655	7.32806761734931e-10
656	7.26006088504007e-10
657	6.97476595504003e-10
658	6.41429125986309e-10
659	6.26493442971565e-10
660	6.09899221598216e-10
661	5.75977669560725e-10
662	5.54745973292151e-10
663	5.3350158963117e-10
664	5.08644131128219e-10
665	5.02622649867226e-10
666	4.81885048239074e-10
667	4.76365167628596e-10
668	4.76447892252755e-10
669	4.69886889363575e-10
670	4.76350852277252e-10
671	4.82577225588329e-10
672	4.3845060875918e-10
673	4.15417291812863e-10
674	4.09814168887464e-10
675	3.85874227983757e-10
676	3.62556669917219e-10
677	3.56951566524062e-10
678	3.45125344887691e-10
679	3.43446501467782e-10
680	3.15316538996243e-10
681	3.1869844198223e-10
682	2.97459576889606e-10
683	2.97653090538193e-10
684	2.87318638463489e-10
685	2.78261772757469e-10
686	2.74551618886878e-10
687	2.55884410488811e-10
688	2.577077614546e-10
689	2.52575609101837e-10
690	2.48163211821716e-10
691	2.38009830114128e-10
692	2.51436608673007e-10
693	2.65492773308501e-10
694	2.65952932077208e-10
695	2.38312127612456e-10
696	2.23886015995038e-10
697	2.10401580737524e-10
698	1.98416502098401e-10
699	1.95757647625537e-10
700	1.87531162472939e-10
701	1.06834013951913e-10
702	1.82794713537715e-10
703	4.64351884668745e-11
704	4.53951305043169e-11
705	0
706	4.45120725692285e-11
707	7.09433166760299e-11
708	0
709	0
710	0
711	0
712	0
713	0
714	0
715	0
716	0
717	0
718	0
719	0
720	0
721	0
722	0
723	0
724	0
725	0
726	0
727	0
728	0
729	0
730	0
731	0
732	0
733	0
734	0
735	0
736	0
737	0
738	0
739	0
740	0
741	0
742	0
743	0
744	0
745	0
746	0
747	0
748	0
749	0
750	0
751	0
752	0
753	0
754	0
755	0
756	0
757	0
758	0
759	0
760	0
761	0
762	0
763	0
764	0
765	0
766	0
767	0
768	0
769	0
770	0
771	0
772	0
773	0
774	0
775	0
776	0
777	0
778	0
779	0
780	0
781	0
782	0
783	0
784	0
785	0
786	0
787	0
788	0
789	0
790	0
791	0
792	0
793	0
794	0
795	0
796	0
797	0
798	0
799	0
800	0
801	0
802	0
803	0
804	0
805	0
806	0
807	0
808	0
809	0
810	0
811	0
812	0
813	0
814	0
815	0
816	0
817	0
818	0
819	0
820	0
821	0
822	0
823	0
824	0
825	0
826	0
827	0
828	0
829	0
830	0
831	0
832	0
833	0
834	0
835	0
836	0
837	0
838	0
839	0
840	0
841	0
842	0
843	0
844	0
845	0
846	0
847	0
848	0
849	0
850	0
851	0
852	0
853	0
854	0
855	0
856	0
857	0
858	0
859	0
860	0
861	0
862	0
863	0
864	0
865	0
866	0
867	0
868	0
869	0
870	0
871	0
872	0
873	0
874	0
875	0
876	0
877	0
878	0
879	0
880	0
881	0
882	0
883	0
884	0
885	0
886	0
887	0
888	0
889	0
890	0
891	0
892	0
893	0
894	0
895	0
896	0
897	0
898	0
899	0
900	0
