Data from Philips_2700K_7,3W_1535Lumen_250ms_1__0__15-14-47-545.txt Node

Date: Thu Dec 18 15:14:47 CET 2025
User: Stefan
Spectrometer: ?
Trigger mode: 0
Integration Time (sec): 2,500000E-1
Scans to average: 1
Electric dark correction enabled: true
Nonlinearity correction enabled: true
Boxcar width: 0
XAxis mode: Wavelengths
Number of Pixels in Spectrum: 3648
>>>>>Begin Spectral Data<<<<<
Wavelength [nm]	Power [W]
210	0
211	0
212	0
213	0
214	0
215	0
216	0
217	0
218	0
219	0
220	0
221	0
222	0
223	0
224	0
225	0
226	0
227	0
228	0
229	0
230	0
231	0
232	0
233	0
234	0
235	0
236	0
237	0
238	0
239	0
240	0
241	0
242	0
243	0
244	0
245	0
246	0
247	0
248	0
249	0
250	0
251	0
252	0
253	0
254	0
255	0
256	0
257	0
258	0
259	0
260	0
261	0
262	0
263	0
264	0
265	0
266	0
267	0
268	0
269	0
270	0
271	0
272	0
273	0
274	0
275	0
276	0
277	0
278	0
279	0
280	0
281	0
282	0
283	0
284	0
285	0
286	0
287	0
288	0
289	0
290	0
291	0
292	0
293	0
294	0
295	0
296	0
297	0
298	0
299	0
300	0
301	0
302	0
303	0
304	0
305	0
306	0
307	0
308	0
309	0
310	0
311	0
312	0
313	0
314	0
315	0
316	0
317	0
318	0
319	0
320	0
321	0
322	0
323	0
324	0
325	0
326	0
327	0
328	0
329	0
330	0
331	0
332	0
333	0
334	0
335	0
336	0
337	0
338	0
339	0
340	0
341	0
342	0
343	0
344	0
345	0
346	0
347	0
348	0
349	0
350	0
351	0
352	0
353	0
354	0
355	0
356	0
357	0
358	0
359	0
360	0
361	0
362	0
363	0
364	0
365	0
366	0
367	0
368	0
369	0
370	0
371	0
372	0
373	0
374	0
375	0
376	0
377	0
378	0
379	0
380	0
381	0
382	0
383	0
384	0
385	0
386	0
387	0
388	0
389	0
390	0
391	0
392	0
393	0
394	0
395	0
396	0
397	0
398	0
399	0
400	0
401	0
402	0
403	0
404	0
405	0
406	0
407	0
408	0
409	0
410	0
411	0
412	0
413	0
414	0
415	0
416	0
417	0
418	0
419	0
420	0
421	0
422	0
423	0
424	0
425	0
426	1.48036373318594e-10
427	1.18381576232075e-10
428	1.42571685607917e-10
429	2.48502943400805e-10
430	2.34826774775204e-10
431	2.47388875913837e-10
432	2.82696830506552e-10
433	3.34471693967465e-10
434	2.95494329537922e-10
435	3.76801218202694e-10
436	3.65300800726613e-10
437	3.84381253873374e-10
438	3.88143377435907e-10
439	4.5529372626397e-10
440	4.48949666284086e-10
441	4.43816200707363e-10
442	4.79201914938223e-10
443	5.60344302917307e-10
444	5.50331971057449e-10
445	5.92753656483786e-10
446	5.85254421344477e-10
447	6.8394060320503e-10
448	6.76771241356583e-10
449	8.07321634272194e-10
450	8.87984112935642e-10
451	9.85368965212485e-10
452	8.58961948746068e-10
453	8.99848175291959e-10
454	9.17218899297965e-10
455	9.09727078175858e-10
456	8.53342397986905e-10
457	8.08983297763747e-10
458	8.09801981249925e-10
459	6.88740007400952e-10
460	6.23994890393305e-10
461	5.70156443083665e-10
462	5.38320700129599e-10
463	4.7956422930636e-10
464	4.83561404909099e-10
465	4.42048785063228e-10
466	4.03676550856724e-10
467	4.33486256532219e-10
468	3.87123528410256e-10
469	3.79714678613232e-10
470	3.69838881550637e-10
471	3.48539222765874e-10
472	3.43487941579883e-10
473	3.20353218876604e-10
474	3.12020897073063e-10
475	3.07326924636617e-10
476	2.72580363042225e-10
477	2.60542011100086e-10
478	2.63696306612392e-10
479	2.47808274121957e-10
480	2.37109992516561e-10
481	2.59903541846021e-10
482	2.3865423312859e-10
483	2.36955457323955e-10
484	2.50303251234715e-10
485	2.52719338548432e-10
486	2.53364718808404e-10
487	2.71849081229047e-10
488	2.82589157700284e-10
489	2.96608111912121e-10
490	2.91698308522477e-10
491	3.09350333230129e-10
492	3.21132867280467e-10
493	3.36626133401249e-10
494	3.60623053279794e-10
495	3.67464354497866e-10
496	4.04913198213425e-10
497	4.18643918227719e-10
498	4.3984439453932e-10
499	4.74768529935994e-10
500	5.23260342645121e-10
501	5.43672693497125e-10
502	5.62428234180808e-10
503	6.18364602031122e-10
504	6.74735663181009e-10
505	7.0144135654615e-10
506	7.53042040164713e-10
507	7.50112443086761e-10
508	8.09527788391e-10
509	8.3932048704094e-10
510	8.84696886719048e-10
511	9.0759891344851e-10
512	9.57469101207503e-10
513	9.88564349662425e-10
514	1.04519874298597e-09
515	1.0692665290709e-09
516	1.1003677236455e-09
517	1.13137861263536e-09
518	1.14151524073476e-09
519	1.18090639106256e-09
520	1.19803449111298e-09
521	1.24950970895235e-09
522	1.28397581846361e-09
523	1.33301935417827e-09
524	1.36224067623426e-09
525	1.38080757082514e-09
526	1.35317282206697e-09
527	1.38756396556326e-09
528	1.40824009696843e-09
529	1.45700914094233e-09
530	1.43027714596404e-09
531	1.47112482733657e-09
532	1.47518649281222e-09
533	1.53586461132652e-09
534	1.56560687656667e-09
535	1.54450026135309e-09
536	1.56767815075648e-09
537	1.56248288583084e-09
538	1.57498786134994e-09
539	1.59005436034884e-09
540	1.64072780985838e-09
541	1.6504720826927e-09
542	1.66686144402591e-09
543	1.64506847303207e-09
544	1.68720346625095e-09
545	1.67123600678421e-09
546	1.71030112502087e-09
547	1.76406140226386e-09
548	1.77700081875586e-09
549	1.77360078195287e-09
550	1.82579999473508e-09
551	1.83151860945107e-09
552	1.83545349553274e-09
553	1.83360940121098e-09
554	1.87290351730407e-09
555	1.86638005175946e-09
556	1.89065964452149e-09
557	1.93387629515381e-09
558	1.9283437356804e-09
559	1.94963851246851e-09
560	1.9925637911003e-09
561	1.9988153044648e-09
562	2.0124718557762e-09
563	2.06016073719889e-09
564	2.05063902839419e-09
565	2.12043167087137e-09
566	2.09085519607725e-09
567	2.09846013347533e-09
568	2.10285379347023e-09
569	2.13058215008927e-09
570	2.16695925450237e-09
571	2.19618783187909e-09
572	2.18412762026513e-09
573	2.18875813962148e-09
574	2.17861424327353e-09
575	2.25084688614465e-09
576	2.26321087299504e-09
577	2.27637713827044e-09
578	2.29146460642946e-09
579	2.26888569829501e-09
580	2.29673525597496e-09
581	2.30533779016187e-09
582	2.32732017274484e-09
583	2.36008792379192e-09
584	2.34101790732681e-09
585	2.35880667655976e-09
586	2.35388680341558e-09
587	2.36403837336974e-09
588	2.34750866472422e-09
589	2.34376657218037e-09
590	2.32011926006937e-09
591	2.36283022118296e-09
592	2.3591216617292e-09
593	2.3152592028634e-09
594	2.30626085056171e-09
595	2.31071761070928e-09
596	2.23793164771756e-09
597	2.30604486833015e-09
598	2.31106969290461e-09
599	2.28561740936521e-09
600	2.25890936077267e-09
601	2.23385787943332e-09
602	2.24538049420251e-09
603	2.21378560078885e-09
604	2.22209998151568e-09
605	2.21922425862919e-09
606	2.19312850050129e-09
607	2.39775770502067e-09
608	2.89235754427055e-09
609	2.96010381889882e-09
610	2.64205940526949e-09
611	2.61719941068518e-09
612	3.29323038980675e-09
613	4.15021156791585e-09
614	3.96817676943875e-09
615	3.22759242616483e-09
616	2.63758716674653e-09
617	2.34208495909828e-09
618	2.27816675788274e-09
619	2.23882814802483e-09
620	2.16967957319318e-09
621	2.10487900710541e-09
622	2.02006565161538e-09
623	2.06155280160422e-09
624	2.06563000394997e-09
625	2.11554956449186e-09
626	2.1004935684329e-09
627	2.13486746851819e-09
628	2.31126105097646e-09
629	3.29085280152915e-09
630	5.75648268806726e-09
631	6.37961344447215e-09
632	5.00049218601064e-09
633	3.8050420530038e-09
634	4.18965579536763e-09
635	4.72617707894907e-09
636	3.77243249724393e-09
637	2.60444549835651e-09
638	1.89398038478488e-09
639	1.45902682587964e-09
640	1.29035404378889e-09
641	1.22972816611088e-09
642	1.16208067039771e-09
643	1.12498509803861e-09
644	1.07890986268586e-09
645	1.12120647461313e-09
646	1.35674083206848e-09
647	1.77410386029195e-09
648	1.67809741738387e-09
649	1.34735205683269e-09
650	1.16097867722759e-09
651	1.04785577861528e-09
652	1.00421743398087e-09
653	9.14319623541814e-10
654	8.77527414684572e-10
655	8.26851904873221e-10
656	8.06195038706258e-10
657	7.71391856413779e-10
658	7.2185269165339e-10
659	6.98876904194174e-10
660	6.73930232708542e-10
661	6.53112334263845e-10
662	6.28672079168312e-10
663	6.02045847523104e-10
664	5.71808354342833e-10
665	5.62690184978472e-10
666	5.41847609687052e-10
667	5.33339765982723e-10
668	5.43772181844734e-10
669	5.34598523320312e-10
670	5.14805301717299e-10
671	5.22097012853211e-10
672	4.68144077566081e-10
673	4.65754126361857e-10
674	4.52695735887438e-10
675	4.21310362915518e-10
676	4.02184506221502e-10
677	4.05591655037204e-10
678	3.77249162530132e-10
679	3.69757359850373e-10
680	3.53024640499508e-10
681	3.45437460887446e-10
682	3.3338063286242e-10
683	3.27314467845537e-10
684	3.1450210691659e-10
685	3.1071960776011e-10
686	2.9248343208889e-10
687	2.79614842486163e-10
688	2.79868314320328e-10
689	2.66409264050581e-10
690	2.70695849575915e-10
691	2.60084336875118e-10
692	2.46757806202479e-10
693	2.74522929765493e-10
694	2.62093927242522e-10
695	2.51621648937599e-10
696	2.36958946033543e-10
697	2.26400491083125e-10
698	2.06959175254315e-10
699	2.00332742191163e-10
700	1.9019171175945e-10
701	1.47439741604112e-10
702	1.53713325339044e-10
703	1.45052462583711e-10
704	9.01720671520105e-11
705	3.77335705048662e-11
706	0
707	7.13759331983203e-11
708	0
709	0
710	0
711	0
712	0
713	0
714	0
715	0
716	0
717	0
718	0
719	0
720	0
721	0
722	0
723	0
724	0
725	0
726	0
727	0
728	0
729	0
730	0
731	0
732	0
733	0
734	0
735	0
736	0
737	0
738	0
739	0
740	0
741	0
742	0
743	0
744	0
745	0
746	0
747	0
748	0
749	0
750	0
751	0
752	0
753	0
754	0
755	0
756	0
757	0
758	0
759	0
760	0
761	0
762	0
763	0
764	0
765	0
766	0
767	0
768	0
769	0
770	0
771	0
772	0
773	0
774	0
775	0
776	0
777	0
778	0
779	0
780	0
781	0
782	0
783	0
784	0
785	0
786	0
787	0
788	0
789	0
790	0
791	0
792	0
793	0
794	0
795	0
796	0
797	0
798	0
799	0
800	0
801	0
802	0
803	0
804	0
805	0
806	0
807	0
808	0
809	0
810	0
811	0
812	0
813	0
814	0
815	0
816	0
817	0
818	0
819	0
820	0
821	0
822	0
823	0
824	0
825	0
826	0
827	0
828	0
829	0
830	0
831	0
832	0
833	0
834	0
835	0
836	0
837	0
838	0
839	0
840	0
841	0
842	0
843	0
844	0
845	0
846	0
847	0
848	0
849	0
850	0
851	0
852	0
853	0
854	0
855	0
856	0
857	0
858	0
859	0
860	0
861	0
862	0
863	0
864	0
865	0
866	0
867	0
868	0
869	0
870	0
871	0
872	0
873	0
874	0
875	0
876	0
877	0
878	0
879	0
880	0
881	0
882	0
883	0
884	0
885	0
886	0
887	0
888	0
889	0
890	0
891	0
892	0
893	0
894	0
895	0
896	0
897	0
898	0
899	0
900	0
