Data from Philips_4000K_7,3W_1535Lumen_250ms_1__0__15-23-04-612.txt Node

Date: Thu Dec 18 15:23:04 CET 2025
User: Stefan
Spectrometer: ?
Trigger mode: 0
Integration Time (sec): 2,500000E-1
Scans to average: 1
Electric dark correction enabled: true
Nonlinearity correction enabled: true
Boxcar width: 0
XAxis mode: Wavelengths
Number of Pixels in Spectrum: 3648
>>>>>Begin Spectral Data<<<<<
Wavelength [nm]	Power [W]
210	0
211	0
212	0
213	0
214	0
215	0
216	0
217	0
218	0
219	0
220	0
221	0
222	0
223	0
224	0
225	0
226	0
227	0
228	0
229	0
230	0
231	0
232	0
233	0
234	0
235	0
236	0
237	0
238	0
239	0
240	0
241	0
242	0
243	0
244	0
245	0
246	0
247	0
248	0
249	0
250	0
251	0
252	0
253	0
254	0
255	0
256	0
257	0
258	0
259	0
260	0
261	0
262	0
263	0
264	0
265	0
266	0
267	0
268	0
269	0
270	0
271	0
272	0
273	0
274	0
275	0
276	0
277	0
278	0
279	0
280	0
281	0
282	0
283	0
284	0
285	0
286	0
287	0
288	0
289	0
290	0
291	0
292	0
293	0
294	0
295	0
296	0
297	0
298	0
299	0
300	0
301	0
302	0
303	0
304	0
305	0
306	0
307	0
308	0
309	0
310	0
311	0
312	0
313	0
314	0
315	0
316	0
317	0
318	0
319	0
320	0
321	0
322	0
323	0
324	0
325	0
326	0
327	0
328	0
329	0
330	0
331	0
332	0
333	0
334	0
335	0
336	0
337	0
338	0
339	0
340	0
341	0
342	0
343	0
344	0
345	0
346	0
347	0
348	0
349	0
350	0
351	0
352	0
353	0
354	0
355	0
356	0
357	0
358	0
359	0
360	0
361	0
362	0
363	0
364	0
365	0
366	0
367	0
368	0
369	0
370	0
371	0
372	0
373	0
374	0
375	0
376	0
377	0
378	0
379	0
380	0
381	0
382	0
383	0
384	0
385	0
386	0
387	0
388	0
389	0
390	0
391	0
392	0
393	0
394	0
395	0
396	0
397	0
398	0
399	0
400	0
401	0
402	0
403	0
404	0
405	0
406	0
407	0
408	0
409	0
410	0
411	0
412	0
413	0
414	0
415	0
416	5.32442569880521e-11
417	1.04867394634428e-10
418	2.07151410083569e-10
419	3.31065320606872e-10
420	3.17650478947356e-10
421	3.7295643346732e-10
422	3.5808391980663e-10
423	4.60997779515336e-10
424	4.23314714974693e-10
425	4.66255953268223e-10
426	5.2561093150558e-10
427	6.76796057311907e-10
428	6.30288910948981e-10
429	7.91425176037248e-10
430	7.39979469387706e-10
431	8.43957638512563e-10
432	1.02118266521668e-09
433	1.16814167417556e-09
434	1.01120178284136e-09
435	1.39561400289123e-09
436	1.40455805201519e-09
437	1.44811281098842e-09
438	1.4596954961691e-09
439	1.67311043088264e-09
440	1.67075966937699e-09
441	1.72728436380472e-09
442	1.90939815997095e-09
443	2.25940067626185e-09
444	2.28510336175867e-09
445	2.54468178287879e-09
446	2.48985023508094e-09
447	2.84384780181268e-09
448	2.85406570572358e-09
449	3.31176187520749e-09
450	3.47274579590035e-09
451	3.79363267959611e-09
452	3.08362895989931e-09
453	3.09695105546572e-09
454	2.96044741568646e-09
455	2.73603820482478e-09
456	2.42054597245963e-09
457	2.21704317551256e-09
458	2.06670603335264e-09
459	1.7569092379488e-09
460	1.54377179050259e-09
461	1.44852185945822e-09
462	1.36838342336904e-09
463	1.2256464533273e-09
464	1.25999615207842e-09
465	1.16324968787795e-09
466	1.04198721726157e-09
467	1.0528004675503e-09
468	9.93592247406253e-10
469	9.34677914359435e-10
470	8.73463656583051e-10
471	7.93487442909777e-10
472	7.43483195814359e-10
473	6.79697292460503e-10
474	6.49744280487041e-10
475	6.17897536973281e-10
476	5.57119354893726e-10
477	5.43507348044934e-10
478	5.38170993854741e-10
479	5.03104569727501e-10
480	4.86430979535817e-10
481	5.23556253296606e-10
482	5.03275339978972e-10
483	5.01738612509875e-10
484	5.17707666132356e-10
485	5.24201433763463e-10
486	5.50463578771705e-10
487	5.4812062761294e-10
488	5.80819670712654e-10
489	6.0345778703595e-10
490	5.982404101099e-10
491	6.27618353812995e-10
492	6.69364602356659e-10
493	7.05069022588621e-10
494	7.47200451949065e-10
495	7.7885812683432e-10
496	8.52472547337102e-10
497	9.00380604323355e-10
498	9.45357052743532e-10
499	1.04554085731712e-09
500	1.12376375296908e-09
501	1.20072989699351e-09
502	1.23822320430545e-09
503	1.33735106725658e-09
504	1.43666400646876e-09
505	1.5274607002746e-09
506	1.62403244614329e-09
507	1.6372364233066e-09
508	1.7357950486286e-09
509	1.77893339437469e-09
510	1.88373649921636e-09
511	1.9213075013541e-09
512	2.01091001137616e-09
513	2.08173855244338e-09
514	2.18706564759379e-09
515	2.24672394978429e-09
516	2.27671127689945e-09
517	2.34357272534485e-09
518	2.37130620131647e-09
519	2.40094656117136e-09
520	2.43680406745834e-09
521	2.52149506105605e-09
522	2.57978427994411e-09
523	2.64402072434451e-09
524	2.69436342395771e-09
525	2.70053136275021e-09
526	2.64240433748045e-09
527	2.70084131813054e-09
528	2.71199181228208e-09
529	2.75883727881572e-09
530	2.72326295186812e-09
531	2.76082882525196e-09
532	2.76759233981605e-09
533	2.85246250033303e-09
534	2.86766843730662e-09
535	2.81082060259868e-09
536	2.82409228935804e-09
537	2.80318612737365e-09
538	2.83808632006981e-09
539	2.81244164886446e-09
540	2.89318536420141e-09
541	2.90913789026833e-09
542	2.9241280904099e-09
543	2.87584710036441e-09
544	2.91739253630428e-09
545	2.86952652858401e-09
546	2.8885060387408e-09
547	2.89319465921762e-09
548	2.89667964705128e-09
549	2.84508281453977e-09
550	2.88202313037179e-09
551	2.84222693285851e-09
552	2.8095814109741e-09
553	2.79750425014071e-09
554	2.8154372726144e-09
555	2.77380956661927e-09
556	2.75590733477995e-09
557	2.78188025462712e-09
558	2.72491093118727e-09
559	2.73923206657816e-09
560	2.788833458893e-09
561	2.72369100200881e-09
562	2.73755897935671e-09
563	2.74878297323279e-09
564	2.70478989642926e-09
565	2.77959154465388e-09
566	2.67633323085368e-09
567	2.69531345728236e-09
568	2.64909588045301e-09
569	2.66603302435605e-09
570	2.66191017530895e-09
571	2.66887332063765e-09
572	2.63004058974237e-09
573	2.62037413361252e-09
574	2.56551839829372e-09
575	2.63923131483306e-09
576	2.61848729732977e-09
577	2.60498137040211e-09
578	2.6039334388263e-09
579	2.57379116928231e-09
580	2.54718336292713e-09
581	2.56267257257713e-09
582	2.54350141325105e-09
583	2.58191971860965e-09
584	2.53112269238262e-09
585	2.50911158367511e-09
586	2.5028735598402e-09
587	2.48445285845431e-09
588	2.46186395482982e-09
589	2.4378816373868e-09
590	2.39385963874135e-09
591	2.39823933502274e-09
592	2.40155634115035e-09
593	2.33744986743677e-09
594	2.3026087656908e-09
595	2.30204970290438e-09
596	2.24644308486211e-09
597	2.2806805476885e-09
598	2.2673662567712e-09
599	2.23097139151181e-09
600	2.19539096651735e-09
601	2.14597127117138e-09
602	2.17230101302579e-09
603	2.13975657507292e-09
604	2.13555891891828e-09
605	2.09990990161348e-09
606	2.07277920849372e-09
607	2.29950199590174e-09
608	2.86660816404719e-09
609	2.86213745743272e-09
610	2.57640631938738e-09
611	2.61942134784104e-09
612	3.46946417707223e-09
613	4.31206483703092e-09
614	3.93366378451366e-09
615	3.07468759653967e-09
616	2.48387124237345e-09
617	2.17539973410478e-09
618	2.14609235265763e-09
619	2.122251715236e-09
620	2.05881185551234e-09
621	1.99118515072644e-09
622	1.91352193988963e-09
623	1.96175688171499e-09
624	1.97514748542341e-09
625	1.99978755647588e-09
626	2.00818041901848e-09
627	2.0447476181014e-09
628	2.2809739651151e-09
629	3.51758360517567e-09
630	6.45215523969506e-09
631	6.78227412830546e-09
632	5.04318266117643e-09
633	3.73916276490325e-09
634	4.48458507116695e-09
635	5.04344311434116e-09
636	3.77261337332972e-09
637	2.4840271301271e-09
638	1.75636091467622e-09
639	1.32831928043086e-09
640	1.16834571326167e-09
641	1.1009832319185e-09
642	1.06130490739066e-09
643	1.02377801254746e-09
644	9.82441021260606e-10
645	1.03999145853446e-09
646	1.33221212784788e-09
647	1.85364109952535e-09
648	1.69055622997728e-09
649	1.29836717045943e-09
650	1.09573445722192e-09
651	9.65550336382153e-10
652	9.3942608414422e-10
653	8.47805705117966e-10
654	7.96914034397538e-10
655	7.60076039386681e-10
656	7.40147797881216e-10
657	7.07359103862796e-10
658	6.64886434368809e-10
659	6.38988166075271e-10
660	6.33546353017956e-10
661	5.96708757725989e-10
662	5.72367651677973e-10
663	5.4759046670047e-10
664	5.23310426549694e-10
665	5.07924056618868e-10
666	4.94714577962227e-10
667	4.82847200221975e-10
668	4.90502939171246e-10
669	4.94608308822399e-10
670	4.83975455789079e-10
671	4.99566359343801e-10
672	4.38955642263191e-10
673	4.22488545424712e-10
674	4.18277672231413e-10
675	3.95054145454962e-10
676	3.64984369401851e-10
677	3.76450935584044e-10
678	3.45729053829731e-10
679	3.45116228042273e-10
680	3.2842342492426e-10
681	3.2929885907772e-10
682	3.08935103425787e-10
683	3.10254682523649e-10
684	2.90367978577006e-10
685	2.94932123307724e-10
686	2.75257404823088e-10
687	2.69065074601694e-10
688	2.69482699970949e-10
689	2.57406830947691e-10
690	2.48570441062715e-10
691	2.43374979285957e-10
692	2.48009117014869e-10
693	2.66544034705615e-10
694	2.76388625092971e-10
695	2.46113882036445e-10
696	2.29893999936764e-10
697	2.1081251098546e-10
698	2.04894646644821e-10
699	1.85631038566871e-10
700	1.8635491463602e-10
701	1.45699617731528e-10
702	1.36282301534412e-10
703	1.84429668896959e-10
704	0
705	7.3017115817461e-11
706	0
707	7.52328135469261e-11
708	3.72805288759992e-11
709	0
710	0
711	0
712	0
713	0
714	0
715	0
716	0
717	0
718	0
719	0
720	0
721	0
722	0
723	0
724	0
725	0
726	0
727	0
728	0
729	0
730	0
731	0
732	0
733	0
734	0
735	0
736	0
737	0
738	0
739	0
740	0
741	0
742	0
743	0
744	0
745	0
746	0
747	0
748	0
749	0
750	0
751	0
752	0
753	0
754	0
755	0
756	0
757	0
758	0
759	0
760	0
761	0
762	0
763	0
764	0
765	0
766	0
767	0
768	0
769	0
770	0
771	0
772	0
773	0
774	0
775	0
776	0
777	0
778	0
779	0
780	0
781	0
782	0
783	0
784	0
785	0
786	0
787	0
788	0
789	0
790	0
791	0
792	0
793	0
794	0
795	0
796	0
797	0
798	0
799	0
800	0
801	0
802	0
803	0
804	0
805	0
806	0
807	0
808	0
809	0
810	0
811	0
812	0
813	0
814	0
815	0
816	0
817	0
818	0
819	0
820	0
821	0
822	0
823	0
824	0
825	0
826	0
827	0
828	0
829	0
830	0
831	0
832	0
833	0
834	0
835	0
836	0
837	0
838	0
839	0
840	0
841	0
842	0
843	0
844	0
845	0
846	0
847	0
848	0
849	0
850	0
851	0
852	0
853	0
854	0
855	0
856	0
857	0
858	0
859	0
860	0
861	0
862	0
863	0
864	0
865	0
866	0
867	0
868	0
869	0
870	0
871	0
872	0
873	0
874	0
875	0
876	0
877	0
878	0
879	0
880	0
881	0
882	0
883	0
884	0
885	0
886	0
887	0
888	0
889	0
890	0
891	0
892	0
893	0
894	0
895	0
896	0
897	0
898	0
899	0
900	0
