Data from Philips_2700K_2,3W_458Lumen_600ms_1__0__15-19-54-218.txt Node

Date: Thu Dec 18 15:19:54 CET 2025
User: Stefan
Spectrometer: ?
Trigger mode: 0
Integration Time (sec): 6,000000E-1
Scans to average: 1
Electric dark correction enabled: true
Nonlinearity correction enabled: true
Boxcar width: 0
XAxis mode: Wavelengths
Number of Pixels in Spectrum: 3648
>>>>>Begin Spectral Data<<<<<
195,033	-704,483
195,299	-704,483
195,565	-704,483
195,831	-771,56764
196,098	-682,77945
196,364	317,44223
196,63	-83,02034
196,896	-94,85698
197,162	-33,70121
197,428	155,68122
197,694	72,82696
197,96	-274,38236
198,226	66,90877
198,492	3,7811
198,757	7,7266
199,023	-167,85014
199,289	29,42678
199,555	471,31041
199,821	96,49969
200,087	59,01784
200,353	126,0905
200,618	169,49019
200,884	299,68809
201,15	214,86237
201,416	21,53581
201,682	157,65393
201,947	412,13054
202,213	193,16266
202,479	-65,26541
202,744	-19,89191
203,01	185,27184
203,276	238,53473
203,541	64,93604
203,807	224,72586
204,073	104,39058
204,338	84,66333
204,604	206,97157
204,869	175,40831
205,135	-6,08264
205,401	92,55424
205,666	145,81766
205,932	262,20704
206,197	155,68122
206,463	37,31774
206,728	406,21254
206,994	-140,231
207,259	112,28147
207,524	252,34358
207,79	15,61758
208,055	183,29913
208,321	60,99057
208,586	108,33603
208,851	62,9633
209,117	185,27184
209,382	-175,74134
209,647	47,18143
209,913	528,5174
210,178	421,99387
210,443	337,16902
210,708	-31,72845
210,974	11,67209
211,239	177,38102
211,504	171,46289
211,769	220,78046
212,034	362,8138
212,3	183,29913
212,565	-112,612
212,83	82,6906
213,095	-4,10989
213,36	193,16266
213,625	-37,64672
213,89	181,32643
214,155	60,99057
214,42	289,82467
214,685	57,0451
214,95	246,42551
215,215	212,88967
215,48	260,23435
215,745	374,64983
216,01	-13,97365
216,275	368,73182
216,54	283,90661
216,805	-79,07479
217,07	57,0451
217,335	29,42678
217,6	295,74272
217,864	90,58151
218,129	374,64983
218,394	266,15242
218,659	59,01784
218,924	250,37089
219,188	41,26322
219,453	321,38759
219,718	421,99387
219,983	191,18995
220,247	240,50743
220,512	214,86237
220,777	540,35331
221,041	297,7154
221,306	704,08261
221,571	-33,70121
221,835	530,49005
222,1	203,02617
222,364	114,25419
222,629	238,53473
222,894	153,70851
223,158	-10,02815
223,423	232,61665
223,687	124,11778
223,952	-92,88421
224,216	199,08076
224,481	489,06432
224,745	-21,86467
225,009	185,27184
225,274	554,16185
225,538	356,89578
225,803	331,25098
226,067	191,18995
226,331	92,55424
226,596	-17,91916
226,86	333,22366
227,124	583,75156
227,389	159,62664
227,653	524,5721
227,917	137,9268
228,181	1,80835
228,446	157,65393
228,71	-53,42881
228,974	199,08076
229,238	321,38759
229,502	104,39058
229,767	161,59935
230,031	210,91697
230,295	305,60614
230,559	126,0905
230,823	68,8815
231,087	285,87929
231,351	915,15378
231,615	911,20853
231,879	-8,0554
232,143	216,83507
232,407	321,38759
232,671	197,10806
232,935	234,58934
233,199	90,58151
233,463	329,2783
233,727	279,96124
233,991	126,0905
234,255	272,07048
234,519	494,98229
234,783	-39,61948
235,047	37,31774
235,311	181,32643
235,574	84,66333
235,838	102,41786
236,102	82,6906
236,366	366,75914
236,63	204,99887
236,893	153,70851
237,157	228,67125
237,421	270,0978
237,684	380,56785
237,948	74,79969
238,212	128,06322
238,475	276,01586
238,739	254,31628
239,003	491,03698
239,266	565,99774
239,53	151,7358
239,794	122,14507
240,057	151,7358
240,321	270,0978
240,584	110,30875
240,848	120,17235
241,111	-10,02815
241,375	337,16902
241,638	573,88833
241,902	303,63345
242,165	277,98855
242,429	212,88967
242,692	197,10806
242,955	3,7811
243,219	364,78647
243,482	423,96653
243,746	-51,45605
244,009	299,68809
244,272	262,20704
244,536	297,7154
244,799	378,59517
245,062	84,66333
245,325	157,65393
245,589	108,33603
245,852	240,50743
246,115	354,9231
246,378	-225,06163
246,641	283,90661
246,905	82,6906
247,168	132,00865
247,431	185,27184
247,694	199,08076
247,957	232,61665
248,22	258,26166
248,483	98,47241
248,746	234,58934
249,009	-61,31987
249,273	139,89952
249,536	299,68809
249,799	-29,75569
250,062	185,27184
250,324	238,53473
250,587	204,99887
250,85	-35,67396
251,113	60,99057
251,376	250,37089
251,639	277,98855
251,902	212,88967
252,165	704,08261
252,428	130,03594
252,691	453,55647
252,953	293,77004
253,216	256,28897
253,479	163,57206
253,742	-69,21094
254,005	-29,75569
254,267	242,48012
254,53	317,44223
254,793	429,88453
255,055	254,31628
255,318	384,51319
255,581	410,15787
255,843	183,29913
256,106	167,51748
256,369	135,95409
256,631	276,01586
256,894	-27,78293
257,157	195,13536
257,419	-49,48329
257,682	360,84112
257,944	469,33775
258,207	163,57206
258,469	122,14507
258,732	189,21725
258,994	-0,1644
259,257	-29,75569
259,519	133,98137
259,781	274,04317
260,044	78,74515
260,306	62,9633
260,569	84,66333
260,831	82,6906
261,093	295,74272
261,356	287,85198
261,618	244,45281
261,88	19,56307
262,143	17,59032
262,405	-92,88421
262,667	155,68122
262,929	137,9268
263,192	613,34122
263,454	-13,97365
263,716	-116,55756
263,978	197,10806
264,24	277,98855
264,502	137,9268
264,765	258,26166
265,027	423,96653
265,289	386,48586
265,551	84,66333
265,813	96,49969
266,075	133,98137
266,337	173,4356
266,599	51,1269
266,861	106,3633
267,123	270,0978
267,385	445,66583
267,647	23,50855
267,909	139,89952
268,171	396,3492
268,433	80,71788
268,695	392,40386
268,957	264,17973
269,219	59,01784
269,48	384,51319
269,742	-10,02815
270,004	118,19963
270,266	139,89952
270,528	132,00865
270,789	493,00963
271,051	414,10321
271,313	354,9231
271,575	208,94427
271,836	133,98137
272,098	203,02617
272,36	423,96653
272,621	169,49019
272,883	33,37226
273,145	157,65393
273,406	114,25419
273,668	43,23595
273,93	-57,37434
274,191	206,97157
274,453	220,78046
274,714	132,00865
274,976	132,00865
275,237	228,67125
275,499	80,71788
275,76	27,45404
276,022	204,99887
276,283	141,87223
276,545	224,72586
276,806	25,4813
277,068	345,05972
277,329	323,36027
277,59	161,59935
277,852	-49,48329
278,113	199,08076
278,374	311,52418
278,636	390,4312
278,897	37,31774
279,158	228,67125
279,42	-73,15648
279,681	352,95043
279,942	337,16902
280,203	287,85198
280,464	133,98137
280,726	201,05347
280,987	86,63606
281,248	161,59935
281,509	285,87929
281,77	283,90661
282,031	57,0451
282,292	133,98137
282,554	246,42551
282,815	139,89952
283,076	287,85198
283,337	234,58934
283,598	-39,61948
283,859	364,78647
284,12	189,21725
284,381	151,7358
284,642	137,9268
284,903	161,59935
285,164	-171,79574
285,424	347,0324
285,685	210,91697
285,946	1,80835
286,207	274,04317
286,468	88,60879
286,729	-35,67396
286,99	429,88453
287,25	-33,70121
287,511	228,67125
287,772	60,99057
288,033	135,95409
288,294	88,60879
288,554	-12,0009
288,815	122,14507
289,076	319,41491
289,336	-2,13714
289,597	218,80777
289,858	573,88833
290,118	25,4813
290,379	108,33603
290,639	185,27184
290,9	15,61758
291,161	59,01784
291,421	301,66077
291,682	252,34358
291,942	84,66333
292,203	59,01784
292,463	29,42678
292,724	-29,75569
292,984	51,1269
293,245	406,21254
293,505	159,62664
293,766	145,81766
294,026	1737,73104
294,286	451,58381
294,547	384,51319
294,807	163,57206
295,067	254,31628
295,328	183,29913
295,588	104,39058
295,848	272,07048
296,109	197,10806
296,369	222,75316
296,629	262,20704
296,889	380,56785
297,15	210,91697
297,41	354,9231
297,67	325,33295
297,93	147,79037
298,19	13,64483
298,45	390,4312
298,711	102,41786
298,971	349,00508
299,231	339,14169
299,491	315,46955
299,751	274,04317
300,011	236,56204
300,271	80,71788
300,531	303,63345
300,791	126,0905
301,051	-114,58478
301,311	319,41491
301,571	187,24454
301,831	277,98855
302,091	189,21725
302,351	-215,19753
302,61	790,8784
302,87	-122,47591
303,13	159,62664
303,39	-39,61948
303,65	276,01586
303,91	5,75385
304,169	-41,59224
304,429	100,44514
304,689	114,25419
304,949	706,05524
305,209	362,8138
305,468	311,52418
305,728	94,52696
305,988	1,80835
306,247	222,75316
306,507	276,01586
306,767	558,10715
307,026	181,32643
307,286	195,13536
307,545	68,8815
307,805	82,6906
308,065	465,39243
308,324	-86,96588
308,584	3,7811
308,843	11,67209
309,103	72,82696
309,362	137,9268
309,622	169,49019
309,881	100,44514
310,14	305,60614
310,4	577,83362
310,659	483,14635
310,919	139,89952
311,178	197,10806
311,437	343,08705
311,697	57,0451
311,956	171,46289
312,215	39,29048
312,475	66,90877
312,734	230,64395
312,993	-10,02815
313,252	189,21725
313,512	177,38102
313,771	218,80777
314,03	376,6225
314,289	418,04854
314,548	232,61665
314,808	404,23987
315,067	315,46955
315,326	-142,20379
315,585	272,07048
315,844	277,98855
316,103	502,87291
316,362	-12,0009
316,621	496,95495
316,88	404,23987
317,139	116,22691
317,398	35,345
317,657	179,35372
317,916	-19,89191
318,175	21,53581
318,434	208,94427
318,693	195,13536
318,952	59,01784
319,211	195,13536
319,47	39,29048
319,729	210,91697
319,987	90,58151
320,246	25,4813
320,505	453,55647
320,764	-23,83742
321,023	74,79969
321,281	203,02617
321,54	293,77004
321,799	139,89952
322,058	-39,61948
322,316	325,33295
322,575	137,9268
322,834	159,62664
323,092	224,72586
323,351	327,30563
323,609	420,0212
323,868	246,42551
324,127	191,18995
324,385	112,28147
324,644	293,77004
324,902	277,98855
325,161	345,05972
325,419	191,18995
325,678	-92,88421
325,936	254,31628
326,195	143,84494
326,453	477,22838
326,712	92,55424
326,97	151,7358
327,228	120,17235
327,487	262,20704
327,745	203,02617
328,004	528,5174
328,262	199,08076
328,52	112,28147
328,779	132,00865
329,037	276,01586
329,295	-94,85698
329,553	163,57206
329,812	226,69856
330,07	212,88967
330,328	-244,78986
330,586	236,56204
330,844	216,83507
331,103	-15,9464
331,361	283,90661
331,619	90,58151
331,877	118,19963
332,135	116,22691
332,393	185,27184
332,651	489,06432
332,909	108,33603
333,167	-4,10989
333,425	66,90877
333,683	112,28147
333,941	252,34358
334,199	224,72586
334,457	210,91697
334,715	199,08076
334,973	238,53473
335,231	157,65393
335,489	-17,91916
335,747	94,52696
336,005	210,91697
336,262	-144,17659
336,52	248,3982
336,778	118,19963
337,036	370,70449
337,294	283,90661
337,551	149,76308
337,809	203,02617
338,067	173,4356
338,325	70,85423
338,582	23,50855
338,84	70,85423
339,098	358,86845
339,355	82,6906
339,613	485,11901
339,871	299,68809
340,128	114,25419
340,386	222,75316
340,643	487,09167
340,901	345,05972
341,159	279,96124
341,416	206,97157
341,674	92,55424
341,931	173,4356
342,189	106,3633
342,446	-33,70121
342,703	203,02617
342,961	556,1345
343,218	173,4356
343,476	203,02617
343,733	-15,9464
343,99	31,39952
344,248	471,31041
344,505	276,01586
344,762	571,91568
345,02	90,58151
345,277	137,9268
345,534	335,19634
345,792	149,76308
346,049	84,66333
346,306	92,55424
346,563	49,15416
346,82	139,89952
347,078	169,49019
347,335	157,65393
347,592	571,91568
347,849	416,07587
348,106	86,63606
348,363	5,75385
348,62	47,18143
348,877	305,60614
349,135	189,21725
349,392	319,41491
349,649	157,65393
349,906	70,85423
350,163	378,59517
350,42	177,38102
350,676	364,78647
350,933	59,01784
351,19	362,8138
351,447	130,03594
351,704	96,49969
351,961	254,31628
352,218	427,91186
352,475	394,37653
352,732	41,26322
352,988	128,06322
353,245	396,3492
353,502	-13,97365
353,759	220,78046
354,015	356,89578
354,272	289,82467
354,529	-10,02815
354,786	147,79037
355,042	493,00963
355,299	250,37089
355,556	315,46955
355,812	264,17973
356,069	-67,23818
356,325	404,23987
356,582	303,63345
356,839	145,81766
357,095	337,16902
357,352	637,01292
357,608	254,31628
357,865	92,55424
358,121	301,66077
358,378	252,34358
358,634	560,0798
358,891	80,71788
359,147	244,45281
359,404	246,42551
359,66	283,90661
359,916	161,59935
360,173	376,6225
360,429	343,08705
360,685	317,44223
360,942	347,0324
361,198	203,02617
361,454	418,04854
361,711	388,45853
361,967	356,89578
362,223	244,45281
362,479	410,15787
362,735	382,54052
362,992	143,84494
363,248	258,26166
363,504	252,34358
363,76	406,21254
364,016	199,08076
364,272	345,05972
364,528	204,99887
364,785	23,50855
365,041	388,45853
365,297	206,97157
365,553	240,50743
365,809	437,77518
366,065	303,63345
366,321	155,68122
366,577	439,74784
366,833	151,7358
367,089	191,18995
367,344	435,80252
367,6	208,94427
367,856	315,46955
368,112	167,51748
368,368	187,24454
368,624	25,4813
368,88	21,53581
369,135	279,96124
369,391	195,13536
369,647	248,3982
369,903	644,90349
370,158	272,07048
370,414	325,33295
370,67	27,45404
370,926	214,86237
371,181	264,17973
371,437	534,43535
371,693	242,48012
371,948	356,89578
372,204	270,0978
372,459	116,22691
372,715	161,59935
372,971	287,85198
373,226	124,11778
373,482	230,64395
373,737	623,20444
373,993	112,28147
374,248	80,71788
374,504	216,83507
374,759	309,5515
375,015	421,99387
375,27	412,13054
375,525	364,78647
375,781	562,05245
376,036	297,7154
376,291	254,31628
376,547	84,66333
376,802	210,91697
377,057	309,5515
377,313	82,6906
377,568	368,73182
377,823	145,81766
378,079	244,45281
378,334	258,26166
378,589	345,05972
378,844	386,48586
379,099	384,51319
379,354	-27,78293
379,61	130,03594
379,865	528,5174
380,12	169,49019
380,375	268,12511
380,63	471,31041
380,885	471,31041
381,14	315,46955
381,395	155,68122
381,65	256,28897
381,905	15,61758
382,16	477,22838
382,415	157,65393
382,67	102,41786
382,925	33,37226
383,18	291,79735
383,435	368,73182
383,69	208,94427
383,945	291,79735
384,2	301,66077
384,454	181,32643
384,709	252,34358
384,964	246,42551
385,219	256,28897
385,474	376,6225
385,728	283,90661
385,983	445,66583
386,238	352,95043
386,493	349,00508
386,747	307,57882
387,002	481,1737
387,257	301,66077
387,511	378,59517
387,766	80,71788
388,02	398,32187
388,275	536,408
388,53	329,2783
388,784	354,9231
389,039	124,11778
389,293	510,76353
389,548	433,82985
389,802	327,30563
390,057	43,23595
390,311	536,408
390,566	228,67125
390,82	169,49019
391,075	439,74784
391,329	167,51748
391,583	347,0324
391,838	70,85423
392,092	285,87929
392,346	366,75914
392,601	463,41977
392,855	410,15787
393,109	402,26721
393,364	238,53473
393,618	242,48012
393,872	102,41786
394,126	327,30563
394,381	414,10321
394,635	542,32596
394,889	260,23435
395,143	165,54477
395,397	270,0978
395,651	775,09737
395,905	110,30875
396,16	682,38361
396,414	607,42329
396,668	345,05972
396,922	270,0978
397,176	114,25419
397,43	329,2783
397,684	212,88967
397,938	114,25419
398,192	463,41977
398,446	388,45853
398,7	272,07048
398,954	248,3982
399,207	534,43535
399,461	489,06432
399,715	297,7154
399,969	341,11437
400,223	313,49687
400,477	500,90026
400,731	374,64983
400,984	429,88453
401,238	498,9276
401,492	307,57882
401,746	392,40386
401,999	356,89578
402,253	526,54475
402,507	203,02617
402,76	311,52418
403,014	260,23435
403,268	246,42551
403,521	520,62679
403,775	204,99887
404,029	396,3492
404,282	331,25098
404,536	483,14635
404,789	571,91568
405,043	469,33775
405,296	601,50536
405,55	201,05347
405,803	416,07587
406,057	704,08261
406,31	534,43535
406,564	593,61479
406,817	321,38759
407,07	508,79087
407,324	341,11437
407,577	504,84556
407,83	660,6846
408,084	449,61115
408,337	644,90349
408,59	416,07587
408,844	406,21254
409,097	303,63345
409,35	567,97039
409,603	220,78046
409,857	496,95495
410,11	577,83362
410,363	542,32596
410,616	524,5721
410,869	347,0324
411,123	717,89105
411,376	404,23987
411,629	496,95495
411,882	435,80252
412,135	177,38102
412,388	335,19634
412,641	569,94304
412,894	473,28307
413,147	850,05721
413,4	562,05245
413,653	388,45853
413,906	352,95043
414,159	410,15787
414,412	414,10321
414,665	514,70883
414,918	629,12236
415,17	516,68149
415,423	556,1345
415,676	427,91186
415,929	266,15242
416,182	706,05524
416,435	514,70883
416,687	771,15211
416,94	289,82467
417,193	670,54779
417,446	569,94304
417,698	637,01292
417,951	437,77518
418,204	670,54779
418,456	579,80627
418,709	491,03698
418,962	544,29861
419,214	585,72421
419,467	607,42329
419,719	546,27126
419,972	652,79404
420,225	595,58743
420,477	747,48054
420,73	638,98557
420,982	739,59001
421,235	816,52256
421,487	522,59944
421,74	567,97039
421,992	828,35832
422,244	623,20444
422,497	704,08261
422,749	751,4258
423,002	777,07
423,254	512,73618
423,506	990,11333
423,759	964,46929
424,011	1003,92165
424,263	1007,86689
424,515	717,89105
424,768	676,4657
425,02	854,00246
425,272	743,53528
425,524	966,4419
425,776	1029,56567
426,029	1132,14163
426,281	1047,31922
426,533	854,00246
426,785	822,44045
427,037	948,68833
427,289	999,97642
427,541	848,08458
427,793	917,1264
428,045	846,11196
428,297	988,14071
428,549	998,0038
428,801	1177,51171
429,053	1070,9906
429,305	1189,34738
429,557	1272,19699
429,809	1169,62127
430,061	1153,84037
430,313	1187,37477
430,565	1368,85475
430,817	1303,75872
431,069	1185,40216
431,32	1252,4709
431,572	1284,03264
431,824	1461,56718
432,076	1110,44289
432,328	1236,69003
432,579	1739,70364
432,831	1471,43019
433,083	1646,99164
433,334	1443,81374
433,586	1668,69021
433,838	1497,07403
434,089	1497,07403
434,341	1680,52579
434,593	1676,58059
434,844	1714,05991
435,096	1727,86807
435,347	1605,56707
435,599	1771,26513
435,851	2009,94801
436,102	1710,11472
436,354	1909,34634
436,605	1702,22434
436,856	2100,68644
437,108	1897,51083
437,359	2185,50681
437,611	1838,33321
437,862	1893,56566
438,114	1962,60609
438,365	2108,57672
438,616	2461,66332
438,868	2134,22012
439,119	2437,99297
439,37	2430,10284
439,621	2159,86348
439,873	2481,38858
440,124	2487,30616
440,375	2576,06939
440,626	2879,83091
440,878	2461,66332
441,129	2609,60198
441,38	2649,05195
441,631	2818,68496
441,882	2994,23168
442,133	2572,12437
442,385	2702,30917
442,636	2978,45237
442,887	2972,53512
443,138	2929,14181
443,389	2986,34203
443,64	3209,22082
443,891	3165,82914
444,142	2911,38992
444,393	3394,61767
444,644	3497,17458
444,895	3526,75786
445,146	3694,39247
445,396	3286,1416
445,647	3583,95163
445,898	3749,6117
446,149	3988,22762
446,4	3520,84122
446,651	3867,93576
446,902	3658,89397
447,152	4285,97857
447,403	4506,80544
447,654	4368,79094
447,905	4542,29359
448,155	4615,23972
448,406	4526,52114
448,657	4889,25846
448,907	4883,34478
449,158	5222,36584
449,409	4765,0674
449,659	5234,19099
449,91	5084,39978
450,16	5096,22586
450,411	5553,4378
450,662	5978,99416
450,912	5441,11752
451,163	5460,82342
451,413	5781,99333
451,664	6191,72193
451,914	6302,01098
452,165	6215,35614
452,415	6303,98034
452,665	6278,37846
452,916	6617,06571
453,166	6026,27004
453,417	6148,39139
453,667	6650,53513
453,917	6073,54421
454,168	6238,98989
454,418	6254,74547
454,668	6701,72167
454,918	6071,57448
455,169	6038,08874
455,419	5959,29537
455,669	5781,99333
455,919	6156,26978
456,17	5927,7767
456,42	6024,30025
456,67	5563,29006
456,92	5506,14605
457,17	5638,16514
457,42	5224,3367
457,67	5797,75444
457,92	5192,8026
458,17	4922,76901
458,421	5041,0368
458,671	4956,27897
458,921	4981,90383
459,171	4514,69174
459,421	4765,0674
459,67	4516,66331
459,92	4451,60059
460,17	4155,8396
460,42	4021,75076
460,67	4153,86775
460,92	3986,25566
461,17	3958,64807
461,42	3321,64312
461,67	3747,6396
461,919	3501,11903
462,169	3706,22523
462,419	3546,47994
462,669	3708,19736
462,918	3542,53553
463,168	3716,08584
463,418	3459,70213
463,668	3047,48656
463,917	3258,52914
464,167	3282,19697
464,417	3246,69519
464,666	3173,71856
464,916	3165,82914
465,165	3376,8672
465,415	3337,42149
465,664	2956,75576
465,914	3434,06291
466,164	3067,21048
466,413	3144,13317
466,663	3274,30771
466,912	4406,25279
467,161	3157,93971
467,411	2998,1765
467,66	3027,76258
467,91	2828,54724
468,159	2956,75576
468,408	3098,76863
468,658	3057,34853
468,907	2852,21667
469,157	3008,03854
469,406	2887,72068
469,655	3104,68576
469,904	3059,32092
470,154	2873,91358
470,403	2842,35442
470,652	2733,86886
470,901	2779,23571
471,15	2828,54724
471,4	2652,99694
471,649	2901,52775
471,898	2724,00647
472,147	2637,21698
472,396	2550,42675
472,645	2656,94193
472,894	2658,91442
473,143	2455,74574
473,392	2585,93193
473,641	2743,73124
473,89	2540,56418
474,139	2398,54228
474,388	2834,4646
474,637	2796,9879
474,886	2426,15777
475,135	2343,31114
475,384	2315,69549
475,633	2534,64663
475,882	2467,5809
476,131	2250,60127
476,38	2264,40916
476,628	2254,54638
476,877	2483,36111
477,126	2465,60838
477,375	2199,31475
477,624	2548,45423
477,872	2465,60838
478,121	1968,52384
478,37	2140,13782
478,618	2217,06779
478,867	2382,76198
479,116	2333,44841
479,364	2211,15011
479,613	2151,97322
479,862	2031,64636
480,11	2252,57383
480,359	2181,56169
480,607	2140,13782
480,856	2288,07979
481,104	2459,69079
481,353	2372,89928
481,601	2570,15186
481,85	2171,69887
482,098	2248,62872
482,347	2189,45194
482,595	2370,92674
482,844	2651,02445
483,092	2380,78944
483,34	2485,33363
483,589	2558,3168
483,837	2526,75657
484,085	2686,52928
484,334	2733,86886
484,582	2370,92674
484,83	2526,75657
485,078	2633,27198
485,327	2518,86649
485,575	2475,47101
485,823	2526,75657
486,071	2791,07051
486,319	2481,38858
486,568	3142,16081
486,816	2710,1991
487,064	2767,4009
487,312	2702,30917
487,56	2885,74824
487,808	2676,66684
488,056	3051,43135
488,304	2887,72068
488,552	3228,9442
488,8	2978,45237
489,048	2960,70061
489,296	3294,03085
489,544	3136,24371
489,792	3264,44611
490,04	3027,76258
490,288	3004,09372
490,536	3189,49737
490,784	3217,11018
491,031	3112,57526
491,279	3317,69852
491,527	3309,80931
491,775	3228,9442
492,023	3424,20163
492,27	3355,1721
492,518	3426,17389
492,766	3580,00726
493,014	3678,6154
493,261	3467,59109
493,509	3852,15945
493,757	4045,41394
494,004	3629,31164
494,252	4002,03131
494,499	3970,47992
494,747	4140,06477
494,995	4000,05936
495,242	3956,67609
495,49	4349,07395
495,737	4420,05439
495,985	4074,99265
496,232	4402,30947
496,48	4554,12285
496,727	4597,49628
496,975	4522,57802
497,222	4565,95205
497,469	5115,93583
497,717	4684,24061
497,964	4977,96157
498,212	4826,17824
498,459	5222,36584
498,706	4920,79781
498,954	4989,78834
499,201	5486,44072
499,448	5462,794
499,695	5553,4378
499,943	5644,07617
500,19	5606,63925
500,437	5760,32152
500,684	5646,04651
500,931	5722,8876
501,179	6201,56957
501,426	6105,05935
501,673	6154,30019
501,92	6199,60005
502,167	6288,2254
502,414	6910,37992
502,661	7250,8344
502,908	6760,78006
503,155	6998,94861
503,402	7016,66142
503,649	7359,04644
503,896	7126,86742
504,143	7339,37244
504,39	7642,3054
504,637	7683,60656
504,884	7555,76342
505,131	7644,27217
505,378	8167,27232
505,624	8161,37565
505,871	8255,71727
506,118	8067,02307
506,365	8617,25598
506,612	8434,54267
506,858	8778,32169
507,105	8448,29679
507,352	8947,20686
507,599	8962,91513
507,845	8913,82566
508,092	8886,33411
508,339	9479,13236
508,585	9288,78443
508,832	9339,81063
509,079	9235,79176
509,325	9857,70833
509,572	9416,34294
509,818	9714,54136
510,065	9889,08328
510,311	10486,87985
510,558	10245,86782
510,804	10753,2579
511,051	10498,6342
511,297	10551,52608
511,544	10555,44382
511,79	10624,00032
512,037	10586,78486
512,283	10580,90853
512,529	10706,25824
512,776	10798,29592
513,022	10902,06674
513,268	11170,22358
513,515	11451,95484
513,761	11518,45558
514,007	11506,72069
514,254	11843,02988
514,5	11360,01528
514,746	11747,24011
514,992	11690,54097
515,238	11844,98461
515,485	11946,6219
515,731	12419,39736
515,977	11999,38825
516,223	12100,99915
516,469	12474,07428
516,715	12509,22105
516,961	12343,23178
517,207	12704,44284
517,453	12856,67103
517,699	12999,10546
517,945	12528,74614
518,191	13024,4669
518,437	13157,10899
518,683	13073,23583
518,929	13082,98913
519,175	13092,74228
519,421	13164,91054
519,667	13422,30415
519,913	13432,05171
520,159	13369,66453
520,404	13504,17874
520,65	13601,63382
520,896	13496,38164
521,142	13724,40461
521,388	13428,15271
521,633	13872,47559
521,879	13796,49636
522,125	14059,46063
522,37	14178,24407
522,616	14088,67183
522,862	14291,16422
523,107	14575,3196
523,353	14516,94218
523,599	14602,56051
523,844	14760,14532
524,09	14433,25828
524,335	14516,94218
524,581	15164,62737
524,826	14320,36431
525,072	14649,25645
525,317	15279,31378
525,563	14678,43964
525,808	14999,36529
526,054	14818,50001
526,299	14884,62879
526,545	14826,28022
526,79	14876,84929
527,035	15269,59538
527,281	15079,08526
527,526	15073,25243
527,771	14876,84929
528,017	15582,45553
528,262	15168,51538
528,507	15423,12919
528,752	15741,7438
528,998	15578,56997
529,243	15529,99865
529,488	15860,21438
529,733	15749,513
529,978	15788,35764
530,224	15745,62841
530,469	15749,513
530,714	15246,27063
530,959	16106,80071
531,204	16114,56578
531,449	15833,02623
531,694	15768,93559
531,939	16322,24999
532,184	15800,0106
532,429	15893,2271
532,674	15613,53914
532,919	15996,13896
533,164	15745,62841
533,409	16178,62441
533,654	15720,37805
533,899	16267,90858
534,144	16118,44829
534,388	16318,36859
534,633	16104,85942
534,878	16605,5356
535,123	16557,03556
535,368	16640,45367
535,612	15980,60608
535,857	16378,52783
536,102	16745,1981
536,347	16522,11356
536,591	16479,42886
536,836	16654,03248
537,081	16886,77403
537,325	16562,85573
537,57	16939,13112
537,815	16782,04916
538,059	16915,86174
538,304	16527,93401
538,548	16844,11007
538,793	16593,89588
539,037	17196,98725
539,282	17086,48776
539,526	16849,92803
539,771	16867,38162
540,015	17076,79409
540,26	17191,17186
540,504	16931,37474
540,749	17100,0587
540,993	17010,874
541,237	17146,58587
541,482	17111,69075
541,726	17272,58342
541,97	17061,28398
542,215	17416,00312
542,459	17177,60247
542,703	17276,45995
542,948	17214,43314
543,192	17414,06518
543,436	17483,82814
543,68	17247,38548
543,924	17557,46057
544,169	17266,76858
544,413	17640,77383
544,657	17830,62083
544,901	17324,91512
545,145	17770,5716
545,389	17846,11675
545,633	17743,45126
545,877	17939,08671
546,121	17572,96132
546,365	17528,3959
546,609	17729,89078
546,853	17724,07908
547,097	18043,66664
547,341	18146,29853
547,585	18063,03201
547,829	18086,26992
548,073	18485,10035
548,317	18781,21819
548,561	18196,64221
548,805	18055,28591
549,048	18345,72162
549,292	17995,25148
549,536	18525,7489
549,78	18082,39697
550,023	18396,05505
550,267	18165,6618
550,511	18279,89714
550,755	18316,68195
550,998	18099,8251
551,242	18004,93471
551,486	18628,33103
551,729	18279,89714
551,973	18471,55048
552,216	18320,55395
552,46	18405,73426
552,704	18837,33596
552,947	18903,12565
553,191	18436,70713
553,434	18670,90938
553,678	18690,26261
553,921	18988,25961
554,165	18823,79055
554,408	19019,21587
554,652	18657,3619
554,895	18876,03624
555,138	18672,84471
555,382	18740,5794
555,625	19110,14519
555,868	19187,52645
556,112	19131,42552
556,355	19427,37803
556,598	19025,02007
556,842	19386,76114
557,085	19054,04068
557,328	19003,73784
557,571	19011,47688
557,814	19568,56055
558,058	19340,34029
558,301	20144,75389
558,544	19114,01437
558,787	19365,48512
559,03	19233,95287
559,273	19649,78232
559,516	19789,00903
559,759	20169,88516
560,003	19491,20208
560,246	20210,48108
560,489	19746,46893
560,732	20272,33978
560,975	19862,48457
561,217	20069,35788
561,46	20100,28998
561,703	20382,5205
561,946	20792,26371
562,189	20877,29563
562,432	20658,91223
562,675	20786,46597
562,918	20479,16513
563,161	21375,84151
563,403	20989,37897
563,646	21337,1972
563,889	21439,60382
564,132	21509,16161
564,374	21370,04489
564,617	21783,51913
564,86	21601,90372
565,102	22276,18012
565,345	21646,34206
565,588	22264,58826
565,83	21853,07264
566,073	22075,25386
566,316	22160,26132
566,558	22254,92836
566,801	21853,07264
567,043	22227,88066
567,286	22164,12528
567,528	22388,23482
567,771	22011,49796
568,013	22741,79001
568,256	22527,33757
568,498	22054,00193
568,741	22243,33649
568,983	22500,28975
569,225	21976,72189
569,468	22880,8969
569,71	22046,27394
569,952	22519,60962
570,195	22191,17304
570,437	22459,71809
570,679	22065,59389
570,922	22517,67763
571,164	22262,65628
571,406	22210,49284
571,648	21808,63575
571,891	22477,10593
572,133	21868,52889
572,375	22011,49796
572,617	21934,21764
572,859	22645,18932
573,101	22252,99639
573,343	21686,91588
573,585	22013,42996
573,827	22496,42578
574,069	21731,35356
574,312	22009,56596
574,554	22500,28975
574,795	21885,91713
575,037	22231,74462
575,279	22305,15978
575,521	22293,56792
575,763	22403,69065
576,005	21713,96494
576,247	22641,32532
576,489	21986,38192
576,731	22479,03792
576,973	22111,96167
577,214	22695,42156
577,456	21833,75228
577,698	22131,28154
577,94	21648,27415
578,181	22148,66941
578,423	21771,92682
578,665	21889,78118
578,907	22258,79232
579,148	22079,11784
579,39	22092,64178
579,632	22094,57377
579,873	22249,13243
580,115	21959,33381
580,356	22019,22597
580,598	22707,01365
580,839	22196,96898
581,081	22065,59389
581,323	22025,02197
581,564	22036,61396
581,806	21928,42159
582,047	22198,90096
582,288	21654,07043
582,53	21887,84916
582,771	22233,6766
583,013	22295,4999
583,254	21630,88529
583,495	22061,7299
583,737	22110,02968
583,978	22088,7778
584,219	21860,80077
584,461	22339,93537
584,702	22177,64916
584,943	22100,36974
585,184	21750,67419
585,426	22262,65628
585,667	21659,8667
585,908	21605,76794
586,149	22019,22597
586,39	21889,78118
586,631	21551,66863
586,873	21980,5859
587,114	22243,33649
587,355	21978,65389
587,596	22140,94147
587,837	22320,6156
588,078	21777,72298
588,319	22028,88596
588,56	21497,56872
588,801	21725,55736
589,042	21171,02201
589,283	21706,23665
589,524	21310,14595
589,765	21431,8751
590,005	21159,42809
590,246	21603,83583
590,487	21296,62025
590,728	21395,16353
590,969	21209,66811
591,21	21404,8245
591,45	20656,97954
591,691	21327,53606
591,932	21008,70323
592,173	21101,45787
592,413	20867,63306
592,654	20713,02678
592,895	20616,39275
593,135	20970,05459
593,376	20730,42048
593,617	21368,11268
593,857	20479,16513
594,098	20809,65683
594,338	20838,64511
594,579	20877,29563
594,819	20419,24601
595,06	20813,52196
595,3	20519,7545
595,541	20506,2248
595,781	20649,24878
596,022	20494,62784
596,262	21000,97354
596,503	20181,48409
596,743	20440,50783
596,983	20948,79761
597,224	20995,17626
597,464	20788,39855
597,704	20711,09414
597,945	20906,28315
598,185	20461,76943
598,425	21138,17247
598,666	20774,87046
598,906	20713,02678
599,146	20695,63295
599,386	20593,19996
599,626	20316,79943
599,867	20819,31963
600,107	20363,191
600,347	20473,36658
600,587	20767,14009
600,827	20411,51438
601,067	20245,27686
601,307	20848,3078
601,547	20413,44729
601,787	20958,45989
602,027	20359,32508
602,267	21257,97512
602,507	20392,18517
602,747	21163,29274
602,987	20767,14009
603,227	21097,59315
603,467	20674,37366
603,707	20716,89206
603,947	20637,65259
604,187	20680,17167
604,426	20794,19628
604,666	20904,35066
604,906	21049,28374
605,146	20962,32479
605,386	20566,1414
605,625	21149,76646
605,865	20577,73797
606,105	21219,32957
606,344	21051,21613
606,584	21754,53831
606,824	22104,23372
607,063	23588,08339
607,303	24705,27459
607,543	25966,44211
607,782	27209,69232
608,022	28678,02794
608,261	29054,80997
608,501	28629,48882
608,74	28062,79972
608,98	27758,28867
609,219	26363,25531
609,459	25827,10867
609,698	25059,13206
609,938	24104,08234
610,177	23974,58911
610,416	23375,52758
610,656	23336,8825
610,895	23713,69152
611,134	24125,34316
611,374	25651,03126
611,613	27620,61959
611,852	30106,69556
612,092	32953,16575
612,331	35524,58056
612,57	37388,97158
612,809	39017,47716
613,049	38411,24518
613,288	38484,50065
613,527	37681,36523
613,766	36034,25342
614,005	34240,09271
614,244	32964,90337
614,483	30359,72983
614,722	29070,35195
614,961	26921,00095
615,2	26049,66362
615,439	24328,29849
615,678	23537,84165
615,917	22073,32186
616,156	21918,76151
616,395	20699,49826
616,634	20705,29621
616,873	20017,15868
617,112	19937,89007
617,351	19338,40606
617,59	19179,78854
617,829	18874,10126
618,068	19253,2967
618,306	19348,07722
618,545	19667,18639
618,784	19077,25666
619,023	18773,47758
619,261	18800,56946
619,5	19189,46092
619,739	18140,48948
619,977	18504,457
620,216	17894,5398
620,455	17931,33958
620,693	17348,17258
620,932	17431,50646
621,171	17540,02189
621,409	17210,55631
621,648	17024,44623
621,886	16906,16596
622,125	16991,48468
622,363	16824,71658
622,602	16989,54572
622,84	16807,26202
623,079	16941,07021
623,317	16712,22458
623,556	16679,24961
623,794	16506,59214
624,032	17233,81703
624,271	17117,50671
624,509	16642,39352
624,747	16638,51382
624,986	16644,33335
625,224	17113,6294
625,462	16869,32088
625,7	16960,46077
625,939	16869,32088
626,177	16946,88743
626,415	16925,5574
626,653	16970,15588
626,891	17034,14054
627,13	16927,49652
627,368	17171,78695
627,606	17726,01632
627,844	18601,23484
628,082	18945,69341
628,32	19609,17202
628,558	21941,9457
628,796	24892,82802
629,034	28879,98785
629,272	34416,64982
629,51	40089,51803
629,748	45823,73731
629,986	49958,98601
630,224	52191,23924
630,462	53956,62829
630,7	53018,17177
630,938	51823,08684
631,175	48464,71816
631,413	45512,04539
631,651	42202,77534
631,889	37264,56651
632,127	34687,4979
632,364	31864,69445
632,602	29043,15373
632,84	27174,81169
633,078	26436,82797
633,315	27467,46672
633,553	28831,43428
633,791	31823,7014
634,028	34091,05066
634,266	37422,5473
634,503	38383,53024
634,741	38561,7298
634,979	36834,35811
635,216	35676,04561
635,454	33446,38342
635,691	30328,58128
635,929	28390,72574
636,166	25757,44845
636,404	22950,45139
636,641	21076,3371
636,878	18879,9062
637,116	17499,33024
637,353	16236,85449
637,591	14752,36429
637,828	13648,40662
638,065	12919,11227
638,302	12042,3796
638,54	11446,08678
638,777	10784,58904
639,014	11046,92513
639,252	10426,14557
639,489	10206,6703
639,726	9490,90474
639,963	9736,11643
640,2	9498,75288
640,437	9329,99819
640,675	8823,49244
640,912	9273,08331
641,149	8815,63685
641,386	8817,60076
641,623	8803,85332
641,86	8809,74511
642,097	8572,07285
642,334	8542,60416
642,571	8222,30587
642,808	8434,54267
643,045	8257,68261
643,282	8082,74926
643,519	8037,53568
643,756	7915,64336
643,993	8316,64035
644,229	8004,11536
644,466	7921,54179
644,703	8224,27129
644,94	8477,76907
645,177	8348,08269
645,413	8287,16202
645,65	9569,3821
645,887	9504,63892
646,124	11017,5647
646,36	11739,41986
646,597	12823,49643
646,834	13061,53165
647,07	13806,23782
647,307	13447,64749
647,544	13568,50088
647,78	12803,9811
648,017	12466,2636
648,253	11870,39556
648,49	11064,54072
648,726	10479,0435
648,963	10000,84443
649,199	9457,54914
649,436	8707,61416
649,672	8621,18482
649,909	8090,61223
650,145	7473,14742
650,382	7779,96839
650,618	7482,98305
650,854	7372,81799
651,091	6989,10802
651,327	7309,86068
651,563	7286,25061
651,8	6908,41164
652,036	7124,89956
652,272	7118,99597
652,508	6876,91865
652,745	6365,02877
652,981	6518,62042
653,217	6268,53143
653,453	5998,69265
653,689	6337,4589
653,925	6530,43431
654,161	5992,78313
654,398	6105,05935
654,634	5870,64723
654,87	5783,96348
655,106	5663,77943
655,342	5908,07716
655,578	5458,85284
655,814	5445,05872
656,05	5401,70498
656,286	5415,49948
656,522	5742,58979
656,757	5198,71529
656,993	5515,99862
657,229	5423,382
657,465	5078,4867
657,701	5017,38384
657,937	4871,51735
658,173	5074,54465
658,408	4968,10587
658,644	4745,35383
658,88	4970,07702
659,116	4991,75946
659,351	4908,97062
659,587	4816,32178
659,823	4435,82754
660,058	4847,8623
660,294	4418,08273
660,53	4735,49698
660,765	4380,62106
661,001	4349,07395
661,236	4581,72422
661,472	4106,54295
661,707	4443,71407
661,943	4100,6273
662,178	4266,26095
662,414	3964,564
662,649	4250,48674
662,885	3844,27127
663,12	3984,28369
663,356	3980,33976
663,591	4124,28984
663,826	4260,34563
664,062	3954,70411
664,297	3818,63456
664,532	3824,55074
664,768	3672,69898
665,003	3617,47864
665,238	3769,33265
665,474	3680,58754
665,709	3550,42434
665,944	3580,00726
666,179	3512,95236
666,414	3609,58996
666,649	3580,00726
666,885	3581,97944
667,12	3313,75392
667,355	3836,38307
667,59	3690,44821
667,825	3550,42434
668,06	3278,25234
668,295	3822,57868
668,53	3694,39247
668,765	3341,36608
669	3574,09069
669,235	3461,67437
669,47	3501,11903
669,705	3445,89641
669,94	3438,00741
670,175	3491,2579
670,409	3455,75764
670,644	3108,63051
670,879	3088,90672
671,114	3179,63562
671,349	4613,26823
671,584	3183,58032
671,818	3171,74621
672,053	3039,59697
672,288	3057,34853
672,522	3065,23809
672,757	3011,98335
672,992	3021,84537
673,226	3043,54177
673,461	2763,45596
673,696	2960,70061
673,93	2911,38992
674,165	2804,87774
674,399	2923,22452
674,634	2795,01543
674,868	2601,71197
675,103	2745,70371
675,337	2834,4646
675,572	2585,93193
675,806	2791,07051
676,041	2430,10284
676,275	2619,46449
676,51	2349,22877
676,744	2808,82266
676,978	2895,61043
677,213	2363,03657
677,447	2477,44353
677,681	2378,8169
677,916	2465,60838
678,15	2331,47587
678,384	2384,73452
678,618	2449,82815
678,853	2337,3935
679,087	2475,47101
679,321	2499,14129
679,555	2309,77784
679,789	1998,11254
680,023	2282,16214
680,257	2347,25623
680,491	2075,043
680,726	2319,64059
680,96	2215,09523
681,194	2077,01558
681,428	2333,44841
681,662	2224,95803
681,896	2280,18959
682,13	1964,57867
682,364	2021,78347
682,597	2138,16525
682,831	2000,08512
683,065	2082,93329
683,299	2118,43957
683,533	1812,68955
683,767	1925,12702
684,001	2033,61894
684,234	1929,07219
684,468	1658,82722
684,702	2086,87844
684,936	1889,62049
685,169	1873,8398
685,403	1785,07327
685,637	1792,96364
685,87	1998,11254
686,104	1792,96364
686,338	1777,1829
686,571	1670,6628
686,805	1607,53967
687,038	1501,01924
687,272	1781,12809
687,506	1753,51179
687,739	1506,93704
687,973	1929,07219
688,206	1532,58087
688,44	1873,8398
688,673	1856,08651
688,906	1664,74501
689,14	1501,01924
689,373	1579,92328
689,607	1840,3058
689,84	1682,49838
690,073	1451,70416
690,307	1544,41647
690,54	1631,21086
690,773	1402,38905
691,006	1718,0051
691,24	1286,00525
691,473	1759,42957
691,706	1550,33428
691,939	1645,01904
692,173	1325,45741
692,406	1735,75845
692,639	1739,70364
692,872	1998,11254
693,105	1524,69046
693,338	1538,49867
693,571	1779,1555
693,804	1694,33396
694,037	1603,59448
694,27	1418,16989
694,503	1538,49867
694,736	1619,37527
694,969	1412,25207
695,202	1524,69046
695,435	1463,53978
695,668	1495,10143
695,901	1481,29321
696,134	1506,93704
696,367	1315,59437
696,599	1457,62197
696,832	1311,64916
697,065	1431,97812
697,298	1443,81374
697,53	998,0038
697,763	1207,10088
697,996	1414,22468
698,229	1114,38812
698,461	1392,52602
698,694	968,41452
698,927	1376,74518
699,159	1130,16902
699,392	1169,62127
699,624	1023,64782
699,857	1207,10088
700,09	1094,66198
700,322	1366,88215
700,555	763,26159
700,787	1360,96433
701,02	1045,3466
701,252	1029,56567
701,484	980,25024
701,717	1199,21043
701,949	1319,53959
702,182	1051,26445
702,414	1236,69003
702,646	944,74309
702,879	1187,37477
703,111	1185,40216
703,343	1094,66198
703,576	1021,67521
703,808	1092,68936
704,04	928,96212
704,272	976,305
704,505	1021,67521
704,737	1019,70259
704,969	964,46929
705,201	848,08458
705,433	1124,25118
705,665	968,41452
705,897	964,46929
706,129	873,7287
706,362	1003,92165
706,594	2443,91056
706,826	784,96052
707,058	1039,42876
707,29	1136,08686
707,522	968,41452
707,754	848,08458
707,985	747,48054
708,217	919,09902
708,449	646,87613
708,681	867,81083
708,913	637,01292
709,145	1001,94904
709,377	893,45493
709,608	1167,64865
709,84	974,33238
710,072	713,94578
710,304	812,57731
710,535	897,40018
710,767	816,52256
710,999	731,69948
711,231	711,97315
711,462	650,8214
711,694	650,8214
711,925	562,05245
712,157	1045,3466
712,389	660,6846
712,62	806,65943
712,852	838,22146
713,083	873,7287
713,315	1248,52569
713,546	642,93085
713,778	739,59001
714,009	759,31633
714,241	591,64214
714,472	964,46929
714,703	731,69948
714,935	635,04028
715,166	494,98229
715,397	702,10997
715,629	893,45493
715,86	836,24883
716,091	794,82366
716,323	824,41307
716,554	788,90577
716,785	427,91186
717,016	623,20444
717,248	567,97039
717,479	846,11196
717,71	567,97039
717,941	1031,53829
718,172	773,12474
718,403	402,26721
718,634	794,82366
718,865	575,86098
719,096	662,65724
719,327	753,39843
719,558	508,79087
719,789	532,4627
720,02	493,00963
720,251	524,5721
720,482	621,23179
720,713	739,59001
720,944	455,52913
721,175	708,02788
721,406	676,4657
721,637	481,1737
721,868	524,5721
722,098	579,80627
722,329	788,90577
722,56	347,0324
722,791	418,04854
723,021	455,52913
723,252	609,39594
723,483	449,61115
723,713	378,59517
723,944	662,65724
724,175	465,39243
724,405	333,22366
724,636	587,69685
724,867	358,86845
725,097	702,10997
725,328	717,89105
725,558	451,58381
725,789	427,91186
726,019	577,83362
726,25	694,21943
726,48	86,63606
726,711	708,02788
726,941	569,94304
727,171	640,95821
727,402	536,408
727,632	350,97775
727,862	303,63345
728,093	715,91841
728,323	135,95409
728,553	631,095
728,784	550,21655
729,014	680,41098
729,244	402,26721
729,474	633,06764
729,705	453,55647
729,935	350,97775
730,165	735,64475
730,395	366,75914
730,625	274,04317
730,855	443,69317
731,085	767,20685
731,315	696,19207
731,545	404,23987
731,775	453,55647
732,005	538,38066
732,235	420,0212
732,465	352,95043
732,695	739,59001
732,925	700,13734
733,155	692,24679
733,385	376,6225
733,615	642,93085
733,845	228,67125
734,075	283,90661
734,305	504,84556
734,534	374,64983
734,764	518,65414
734,994	335,19634
735,224	923,04426
735,453	567,97039
735,683	420,0212
735,913	662,65724
736,142	289,82467
736,372	493,00963
736,602	591,64214
736,831	321,38759
737,061	370,70449
737,291	465,39243
737,52	364,78647
737,75	390,4312
737,979	382,54052
738,209	536,408
738,438	694,21943
738,668	270,0978
738,897	400,29454
739,127	132,00865
739,356	508,79087
739,585	74,79969
739,815	305,60614
740,044	461,44711
740,273	532,4627
740,503	297,7154
740,732	400,29454
740,961	110,30875
741,191	376,6225
741,42	510,76353
741,649	583,75156
741,878	331,25098
742,108	358,86845
742,337	520,62679
742,566	556,1345
742,795	248,3982
743,024	240,50743
743,253	325,33295
743,482	327,30563
743,711	218,80777
743,94	274,04317
744,169	739,59001
744,398	408,18521
744,627	546,27126
744,856	268,12511
745,085	441,7205
745,314	268,12511
745,543	149,76308
745,772	309,5515
746,001	264,17973
746,23	339,14169
746,459	276,01586
746,687	204,99887
746,916	187,24454
747,145	420,0212
747,374	323,36027
747,603	256,28897
747,831	102,41786
748,06	390,4312
748,289	337,16902
748,517	244,45281
748,746	412,13054
748,975	642,93085
749,203	293,77004
749,432	157,65393
749,66	264,17973
749,889	384,51319
750,118	139,89952
750,346	143,84494
750,575	591,64214
750,803	498,9276
751,031	564,02509
751,26	954,60619
751,488	301,66077
751,717	461,44711
751,945	171,46289
752,174	246,42551
752,402	220,78046
752,63	625,17708
752,859	309,5515
753,087	343,08705
753,315	325,33295
753,543	197,10806
753,772	210,91697
754	285,87929
754,228	285,87929
754,456	759,31633
754,684	315,46955
754,913	74,79969
755,141	384,51319
755,369	281,93392
755,597	242,48012
755,825	145,81766
756,053	274,04317
756,281	315,46955
756,509	362,8138
756,737	157,65393
756,965	329,2783
757,193	173,4356
757,421	343,08705
757,649	35,345
757,877	86,63606
758,105	256,28897
758,332	70,85423
758,56	333,22366
758,788	356,89578
759,016	268,12511
759,244	262,20704
759,472	193,16266
759,699	451,58381
759,927	179,35372
760,155	350,97775
760,382	116,22691
760,61	380,56785
760,838	491,03698
761,065	157,65393
761,293	218,80777
761,521	311,52418
761,748	297,7154
761,976	258,26166
762,203	-142,20379
762,431	287,85198
762,658	-61,31987
762,886	173,4356
763,113	55,07237
763,341	3,7811
763,568	183,29913
763,796	-2,13714
764,023	-8,0554
764,25	236,56204
764,478	147,79037
764,705	135,95409
764,932	382,54052
765,16	189,21725
765,387	295,74272
765,614	145,81766
765,842	163,57206
766,069	455,52913
766,296	193,16266
766,523	147,79037
766,75	321,38759
766,978	23,50855
767,205	279,96124
767,432	435,80252
767,659	366,75914
767,886	94,52696
768,113	279,96124
768,34	84,66333
768,567	222,75316
768,794	329,2783
769,021	122,14507
769,248	120,17235
769,475	220,78046
769,702	191,18995
769,929	414,10321
770,156	139,89952
770,383	258,26166
770,609	39,29048
770,836	-57,37434
771,063	254,31628
771,29	220,78046
771,517	323,36027
771,743	291,79735
771,97	272,07048
772,197	159,62664
772,424	43,23595
772,65	51,1269
772,877	390,4312
773,104	195,13536
773,33	159,62664
773,557	57,0451
773,783	41,26322
774,01	-21,86467
774,236	362,8138
774,463	479,20104
774,69	258,26166
774,916	147,79037
775,143	250,37089
775,369	335,19634
775,595	11,67209
775,822	299,68809
776,048	272,07048
776,275	362,8138
776,501	29,42678
776,727	135,95409
776,954	-75,12925
777,18	199,08076
777,406	-106,69365
777,633	-39,61948
777,859	108,33603
778,085	57,0451
778,311	439,74784
778,537	471,31041
778,764	-51,45605
778,99	291,79735
779,216	135,95409
779,442	51,1269
779,668	106,3633
779,894	274,04317
780,12	-102,74809
780,346	522,59944
780,572	262,20704
780,798	289,82467
781,024	228,67125
781,25	145,81766
781,476	-33,70121
781,702	266,15242
781,928	27,45404
782,154	335,19634
782,38	187,24454
782,606	240,50743
782,831	248,3982
783,057	258,26166
783,283	210,91697
783,509	386,48586
783,735	463,41977
783,96	108,33603
784,186	153,70851
784,412	354,9231
784,637	303,63345
784,863	122,14507
785,089	232,61665
785,314	274,04317
785,54	-12,0009
785,766	266,15242
785,991	443,69317
786,217	13,64483
786,442	39,29048
786,668	234,58934
786,893	220,78046
787,119	159,62664
787,344	228,67125
787,57	70,85423
787,795	457,50179
788,02	268,12511
788,246	80,71788
788,471	-146,14938
788,696	23,50855
788,922	197,10806
789,147	256,28897
789,372	297,7154
789,598	380,56785
789,823	197,10806
790,048	216,83507
790,273	128,06322
790,499	315,46955
790,724	396,3492
790,949	224,72586
791,174	317,44223
791,399	124,11778
791,624	508,79087
791,849	510,76353
792,074	546,27126
792,299	431,85719
792,524	236,56204
792,749	246,42551
792,974	31,39952
793,199	191,18995
793,424	477,22838
793,649	228,67125
793,874	191,18995
794,099	78,74515
794,324	108,33603
794,549	199,08076
794,774	98,47241
794,998	325,33295
795,223	489,06432
795,448	181,32643
795,673	274,04317
795,897	266,15242
796,122	325,33295
796,347	-12,0009
796,571	220,78046
796,796	335,19634
797,021	90,58151
797,245	459,47445
797,47	53,09963
797,695	70,85423
797,919	124,11778
798,144	64,93604
798,368	423,96653
798,593	244,45281
798,817	268,12511
799,042	248,3982
799,266	289,82467
799,491	315,46955
799,715	232,61665
799,939	248,3982
800,164	167,51748
800,388	66,90877
800,612	216,83507
800,837	321,38759
801,061	309,5515
801,285	214,86237
801,51	242,48012
801,734	281,93392
801,958	133,98137
802,182	64,93604
802,406	506,81822
802,631	122,14507
802,855	51,1269
803,079	248,3982
803,303	68,8815
803,527	116,22691
803,751	491,03698
803,975	104,39058
804,199	-57,37434
804,423	15,61758
804,647	362,8138
804,871	238,53473
805,095	270,0978
805,319	323,36027
805,543	133,98137
805,767	264,17973
805,991	203,02617
806,215	360,84112
806,438	149,76308
806,662	248,3982
806,886	435,80252
807,11	-59,34711
807,334	319,41491
807,557	59,01784
807,781	210,91697
808,005	-41,59224
808,228	64,93604
808,452	64,93604
808,676	210,91697
808,899	153,70851
809,123	197,10806
809,347	191,18995
809,57	199,08076
809,794	445,66583
810,017	491,03698
810,241	331,25098
810,464	277,98855
810,688	329,2783
810,911	376,6225
811,135	305,60614
811,358	-90,91143
811,581	151,7358
811,805	145,81766
812,028	98,47241
812,251	173,4356
812,475	-57,37434
812,698	104,39058
812,921	64,93604
813,145	195,13536
813,368	106,3633
813,591	-118,53034
813,814	-10,02815
814,038	301,66077
814,261	98,47241
814,484	5,75385
814,707	232,61665
814,93	39,29048
815,153	175,40831
815,376	132,00865
815,599	193,16266
815,822	250,37089
816,045	169,49019
816,268	-92,88421
816,491	374,64983
816,714	191,18995
816,937	-47,51053
817,16	-92,88421
817,383	64,93604
817,606	195,13536
817,829	293,77004
818,052	-165,87734
818,274	329,2783
818,497	-21,86467
818,72	-47,51053
818,943	-120,50313
819,166	137,9268
819,388	165,54477
819,611	266,15242
819,834	35,345
820,056	74,79969
820,279	9,69934
820,502	382,54052
820,724	279,96124
820,947	159,62664
821,169	124,11778
821,392	128,06322
821,614	258,26166
821,837	64,93604
822,06	218,80777
822,282	-15,9464
822,504	376,6225
822,727	23,50855
822,949	309,5515
823,172	299,68809
823,394	-71,18371
823,616	-0,1644
823,839	47,18143
824,061	281,93392
824,283	141,87223
824,506	-8,0554
824,728	228,67125
824,95	279,96124
825,172	240,50743
825,395	204,99887
825,617	-126,42148
825,839	236,56204
826,061	427,91186
826,283	187,24454
826,505	208,94427
826,728	374,64983
826,95	350,97775
827,172	281,93392
827,394	390,4312
827,616	-120,50313
827,838	262,20704
828,06	100,44514
828,282	173,4356
828,504	-13,97365
828,726	55,07237
828,947	60,99057
829,169	386,48586
829,391	204,99887
829,613	155,68122
829,835	169,49019
830,057	74,79969
830,278	307,57882
830,5	-4,10989
830,722	185,27184
830,944	562,05245
831,165	171,46289
831,387	145,81766
831,609	-112,612
831,83	-21,86467
832,052	230,64395
832,274	433,82985
832,495	491,03698
832,717	-154,04055
832,938	214,86237
833,16	60,99057
833,381	-31,72845
833,603	242,48012
833,824	210,91697
834,046	135,95409
834,267	197,10806
834,489	15,61758
834,71	-83,02034
834,931	114,25419
835,153	108,33603
835,374	252,34358
835,595	-102,74809
835,817	128,06322
836,038	317,44223
836,259	173,4356
836,481	232,61665
836,702	169,49019
836,923	-128,39427
837,144	-207,30627
837,365	276,01586
837,587	234,58934
837,808	254,31628
838,029	382,54052
838,25	193,16266
838,471	106,3633
838,692	86,63606
838,913	57,0451
839,134	471,31041
839,355	305,60614
839,576	76,77242
839,797	153,70851
840,018	368,73182
840,239	366,75914
840,46	-75,12925
840,681	114,25419
840,901	435,80252
841,122	94,52696
841,343	147,79037
841,564	100,44514
841,785	179,35372
842,005	-13,97365
842,226	106,3633
842,447	-39,61948
842,668	-67,23818
842,888	51,1269
843,109	262,20704
843,33	345,05972
843,55	90,58151
843,771	250,37089
843,991	25,4813
844,212	171,46289
844,433	-19,89191
844,653	277,98855
844,874	197,10806
845,094	57,0451
845,315	78,74515
845,535	151,7358
845,755	-65,26541
845,976	137,9268
846,196	88,60879
846,417	43,23595
846,637	163,57206
846,857	240,50743
847,078	183,29913
847,298	226,69856
847,518	281,93392
847,738	-79,07479
847,959	309,5515
848,179	206,97157
848,399	236,56204
848,619	106,3633
848,839	169,49019
849,06	-37,64672
849,28	135,95409
849,5	268,12511
849,72	-65,26541
849,94	-33,70121
850,16	49,15416
850,38	112,28147
850,6	287,85198
850,82	295,74272
851,04	23,50855
851,26	49,15416
851,48	49,15416
851,7	-2,13714
851,92	21,53581
852,14	118,19963
852,359	-53,42881
852,579	-227,03445
852,799	461,44711
853,019	130,03594
853,239	-8,0554
853,458	352,95043
853,678	92,55424
853,898	277,98855
854,117	163,57206
854,337	193,16266
854,557	43,23595
854,776	137,9268
854,996	96,49969
855,216	82,6906
855,435	72,82696
855,655	242,48012
855,874	41,26322
856,094	171,46289
856,313	29,42678
856,533	147,79037
856,752	161,59935
856,972	-84,99311
857,191	66,90877
857,411	130,03594
857,63	-27,78293
857,849	-81,04757
858,069	96,49969
858,288	104,39058
858,507	333,22366
858,727	199,08076
858,946	39,29048
859,165	-156,01335
859,384	76,77242
859,604	-84,99311
859,823	-41,59224
860,042	1570,06028
860,261	226,69856
860,48	453,55647
860,699	195,13536
860,918	43,23595
861,137	441,7205
861,356	-90,91143
861,576	-53,42881
861,795	19,56307
862,014	96,49969
862,233	102,41786
862,451	108,33603
862,67	167,51748
862,889	37,31774
863,108	-49,48329
863,327	-138,25821
863,546	236,56204
863,765	214,86237
863,984	7,7266
864,202	193,16266
864,421	-69,21094
864,64	19,56307
864,859	-81,04757
865,077	240,50743
865,296	238,53473
865,515	250,37089
865,733	238,53473
865,952	208,94427
866,171	1,80835
866,389	92,55424
866,608	-146,14938
866,826	45,20869
867,045	-61,31987
867,264	64,93604
867,482	70,85423
867,701	-159,95894
867,919	291,79735
868,137	147,79037
868,356	368,73182
868,574	-122,47591
868,793	-4,10989
869,011	319,41491
869,229	-8,0554
869,448	43,23595
869,666	-13,97365
869,884	-25,81018
870,103	147,79037
870,321	118,19963
870,539	13,64483
870,757	345,05972
870,975	343,08705
871,194	224,72586
871,412	-31,72845
871,63	287,85198
871,848	161,59935
872,066	100,44514
872,284	-33,70121
872,502	240,50743
872,72	159,62664
872,938	210,91697
873,156	55,07237
873,374	59,01784
873,592	-187,57817
873,81	9,69934
874,028	-4,10989
874,246	220,78046
874,464	289,82467
874,682	218,80777
874,9	191,18995
875,117	277,98855
875,335	244,45281
875,553	299,68809
875,771	19,56307
875,988	159,62664
876,206	-10,02815
876,424	31,39952
876,642	-47,51053
876,859	53,09963
877,077	25,4813
877,294	7,7266
877,512	-83,02034
877,73	347,0324
877,947	-12,0009
878,165	29,42678
878,382	232,61665
878,6	-21,86467
878,817	141,87223
879,035	151,7358
879,252	177,38102
879,47	238,53473
879,687	151,7358
879,904	74,79969
880,122	5,75385
880,339	25,4813
880,556	13,64483
880,774	17,59032
880,991	124,11778
881,208	461,44711
881,426	246,42551
881,643	181,32643
881,86	388,45853
882,077	-86,96588
882,294	104,39058
882,512	277,98855
882,729	130,03594
882,946	191,18995
883,163	-51,45605
883,38	5,75385
883,597	289,82467
883,814	266,15242
884,031	-17,91916
884,248	151,7358
884,465	126,0905
884,682	149,76308
884,899	11,67209
885,116	-0,1644
885,333	262,20704
885,55	130,03594
885,766	185,27184
885,983	80,71788
886,2	181,32643
886,417	-104,72087
886,634	45,20869
886,85	309,5515
887,067	-45,53776
887,284	133,98137
887,501	66,90877
887,717	-94,85698
887,934	-10,02815
888,151	64,93604
888,367	145,81766
888,584	151,7358
888,8	110,30875
889,017	161,59935
889,234	108,33603
889,45	-175,74134
889,667	53,09963
889,883	189,21725
890,099	72,82696
890,316	181,32643
890,532	264,17973
890,749	-197,44221
890,965	35,345
891,181	120,17235
891,398	-27,78293
891,614	151,7358
891,83	193,16266
892,047	155,68122
892,263	-167,85014
892,479	64,93604
892,695	-88,93866
892,912	155,68122
893,128	66,90877
893,344	264,17973
893,56	104,39058
893,776	23,50855
893,992	248,3982
894,209	155,68122
894,425	230,64395
894,641	45,20869
894,857	185,27184
895,073	155,68122
895,289	3,7811
895,505	167,51748
895,721	59,01784
895,937	45,20869
896,152	208,94427
896,368	179,35372
896,584	53,09963
896,8	270,0978
897,016	3,7811
897,232	-17,91916
897,447	31,39952
897,663	-23,83742
897,879	116,22691
898,095	72,82696
898,31	272,07048
898,526	3,7811
898,742	212,88967
898,957	90,58151
899,173	104,39058
899,389	-132,33985
899,604	88,60879
899,82	-19,89191
900,035	64,93604
900,251	297,7154
900,466	696,19207
900,682	325,33295
900,897	210,91697
901,113	57,0451
901,328	-47,51053
901,544	-33,70121
901,759	120,17235
901,974	62,9633
902,19	-124,4487
902,405	-122,47591
902,62	31,39952
902,836	506,81822
903,051	-43,565
903,266	-61,31987
903,482	-21,86467
903,697	7,7266
903,912	187,24454
904,127	112,28147
904,342	337,16902
904,557	352,95043
904,773	291,79735
904,988	279,96124
905,203	116,22691
905,418	-8,0554
905,633	47,18143
905,848	70,85423
906,063	-69,21094
906,278	62,9633
906,493	118,19963
906,708	-8,0554
906,923	208,94427
907,138	-25,81018
907,352	78,74515
907,567	110,30875
907,782	62,9633
907,997	159,62664
908,212	181,32643
908,427	208,94427
908,641	11,67209
908,856	149,76308
909,071	37,31774
909,285	149,76308
909,5	135,95409
909,715	254,31628
909,929	70,85423
910,144	-79,07479
910,359	122,14507
910,573	13,64483
910,788	246,42551
911,002	197,10806
911,217	39,29048
911,431	120,17235
911,646	11,67209
911,86	179,35372
912,075	378,59517
912,289	-106,69365
912,504	-112,612
912,718	246,42551
912,932	157,65393
913,147	-83,02034
913,361	84,66333
913,575	-63,29264
913,79	483,14635
914,004	193,16266
914,218	435,80252
914,432	-12,0009
914,646	244,45281
914,861	-37,64672
915,075	289,82467
915,289	-17,91916
915,503	-100,77532
915,717	201,05347
915,931	250,37089
916,145	55,07237
916,359	564,02509
916,573	313,49687
916,787	293,77004
917,001	181,32643
917,215	110,30875
917,429	33,37226
917,643	193,16266
917,857	183,29913
918,071	59,01784
918,285	220,78046
918,499	139,89952
918,713	-108,66643
918,926	17,59032
919,14	68,8815
919,354	437,77518
919,568	133,98137
919,781	175,40831
919,995	-49,48329
920,209	-23,83742
920,422	214,86237
920,636	15,61758
920,85	120,17235
921,063	-94,85698
921,277	173,4356
921,49	-45,53776
921,704	232,61665
921,917	-17,91916
922,131	110,30875
922,344	327,30563
922,558	25,4813
922,771	266,15242
922,985	366,75914
923,198	35,345
923,412	218,80777
923,625	88,60879
923,838	70,85423
924,052	124,11778
924,265	214,86237
924,478	-138,25821
924,691	530,49005
924,905	268,12511
925,118	-23,83742
925,331	108,33603
925,544	9,69934
925,757	-61,31987
925,971	86,63606
926,184	-102,74809
926,397	177,38102
926,61	37,31774
926,823	159,62664
927,036	299,68809
927,249	98,47241
927,462	5,75385
927,675	39,29048
927,888	116,22691
928,101	-8,0554
928,314	345,05972
928,527	185,27184
928,74	102,41786
928,953	418,04854
929,165	-51,45605
929,378	82,6906
929,591	451,58381
929,804	90,58151
930,017	208,94427
930,229	80,71788
930,442	167,51748
930,655	37,31774
930,867	33,37226
931,08	-81,04757
931,293	234,58934
931,505	-69,21094
931,718	137,9268
931,931	214,86237
932,143	145,81766
932,356	-31,72845
932,568	-250,70835
932,781	-2,13714
932,993	53,09963
933,206	-203,36065
933,418	47,18143
933,631	360,84112
933,843	149,76308
934,055	66,90877
934,268	-21,86467
934,48	276,01586
934,692	-23,83742
934,905	204,99887
935,117	5,75385
935,329	270,0978
935,541	307,57882
935,754	295,74272
935,966	204,99887
936,178	47,18143
936,39	-37,64672
936,602	-161,93174
936,814	100,44514
937,027	-12,0009
937,239	55,07237
937,451	128,06322
937,663	147,79037
937,875	23,50855
938,087	-2,13714
938,299	-39,61948
938,511	254,31628
938,723	114,25419
938,935	106,3633
939,146	386,48586
939,358	208,94427
939,57	175,40831
939,782	116,22691
939,994	64,93604
940,206	378,59517
940,417	277,98855
940,629	-108,66643
940,841	197,10806
941,053	155,68122
941,264	224,72586
941,476	352,95043
941,688	29,42678
941,899	335,19634
942,111	-4,10989
942,323	-92,88421
942,534	7,7266
942,746	429,88453
942,957	5,75385
943,169	72,82696
943,38	-13,97365
943,592	98,47241
943,803	-21,86467
944,015	307,57882
944,226	68,8815
944,437	313,49687
944,649	108,33603
944,86	-140,231
945,071	201,05347
945,283	62,9633
945,494	-8,0554
945,705	-35,67396
945,917	352,95043
946,128	124,11778
946,339	252,34358
946,55	7,7266
946,761	388,45853
946,973	145,81766
947,184	114,25419
947,395	102,41786
947,606	-59,34711
947,817	262,20704
948,028	108,33603
948,239	41,26322
948,45	118,19963
948,661	301,66077
948,872	112,28147
949,083	279,96124
949,294	-10,02815
949,505	43,23595
949,716	459,47445
949,927	305,60614
950,138	120,17235
950,348	-8,0554
950,559	163,57206
950,77	218,80777
950,981	137,9268
951,191	289,82467
951,402	390,4312
951,613	90,58151
951,824	-67,23818
952,034	80,71788
952,245	212,88967
952,456	-57,37434
952,666	-144,17659
952,877	337,16902
953,087	120,17235
953,298	-35,67396
953,508	23,50855
953,719	90,58151
953,929	240,50743
954,14	147,79037
954,35	-88,93866
954,561	-55,40158
954,771	187,24454
954,982	64,93604
955,192	118,19963
955,402	398,32187
955,613	224,72586
955,823	15,61758
956,033	-29,75569
956,243	173,4356
956,454	317,44223
956,664	45,20869
956,874	319,41491
957,084	88,60879
957,294	-209,27909
957,505	-65,26541
957,715	-4,10989
957,925	175,40831
958,135	274,04317
958,345	147,79037
958,555	323,36027
958,765	13,64483
958,975	96,49969
959,185	-19,89191
959,395	212,88967
959,605	193,16266
959,815	291,79735
960,025	191,18995
960,235	258,26166
960,445	-23,83742
960,654	68,8815
960,864	122,14507
961,074	-69,21094
961,284	-43,565
961,494	248,3982
961,703	133,98137
961,913	64,93604
962,123	49,15416
962,332	210,91697
962,542	-191,52379
962,752	-23,83742
962,961	427,91186
963,171	199,08076
963,38	268,12511
963,59	98,47241
963,8	256,28897
964,009	-104,72087
964,219	108,33603
964,428	-75,12925
964,637	206,97157
964,847	57,0451
965,056	260,23435
965,266	201,05347
965,475	199,08076
965,684	246,42551
965,894	72,82696
966,103	362,8138
966,312	-156,01335
966,522	-33,70121
966,731	5,75385
966,94	258,26166
967,149	319,41491
967,359	17,59032
967,568	114,25419
967,777	-51,45605
967,986	276,01586
968,195	337,16902
968,404	68,8815
968,613	60,99057
968,822	151,7358
969,031	86,63606
969,24	208,94427
969,449	-43,565
969,658	122,14507
969,867	234,58934
970,076	118,19963
970,285	238,53473
970,494	203,02617
970,703	135,95409
970,912	-197,44221
971,12	-138,25821
971,329	187,24454
971,538	66,90877
971,747	72,82696
971,956	106,3633
972,164	309,5515
972,373	473,28307
972,582	17,59032
972,79	104,39058
972,999	-45,53776
973,208	5,75385
973,416	-122,47591
973,625	-33,70121
973,833	206,97157
974,042	100,44514
974,25	59,01784
974,459	64,93604
974,667	208,94427
974,876	321,38759
975,084	-8,0554
975,293	404,23987
975,501	-211,2519
975,709	64,93604
975,918	248,3982
976,126	19,56307
976,334	250,37089
976,543	-290,16509
976,751	266,15242
976,959	-179,68695
977,168	-65,26541
977,376	220,78046
977,584	183,29913
977,792	90,58151
978	139,89952
978,208	-146,14938
978,416	216,83507
978,625	120,17235
978,833	214,86237
979,041	102,41786
979,249	25,4813
979,457	175,40831
979,665	238,53473
979,873	-33,70121
980,081	-27,78293
980,289	-53,42881
980,496	76,77242
980,704	-65,26541
980,912	153,70851
981,12	-88,93866
981,328	246,42551
981,536	-19,89191
981,743	287,85198
981,951	234,58934
982,159	141,87223
982,367	17,59032
982,574	171,46289
982,782	431,85719
982,99	307,57882
983,197	51,1269
983,405	116,22691
983,613	-130,36706
983,82	23,50855
984,028	7,7266
984,235	64,93604
984,443	11,67209
984,65	510,76353
984,858	-79,07479
985,065	370,70449
985,273	-219,14317
985,48	-88,93866
985,687	157,65393
985,895	122,14507
986,102	244,45281
986,31	-69,21094
986,517	-114,58478
986,724	287,85198
986,931	-128,39427
987,139	402,26721
987,346	139,89952
987,553	-108,66643
987,76	-132,33985
987,967	70,85423
988,175	248,3982
988,382	106,3633
988,589	345,05972
988,796	163,57206
989,003	201,05347
989,21	84,66333
989,417	-100,77532
989,624	59,01784
989,831	201,05347
990,038	187,24454
990,245	212,88967
990,452	5,75385
990,659	-49,48329
990,866	191,18995
991,073	15,61758
991,279	153,70851
991,486	264,17973
991,693	98,47241
991,9	-84,99311
992,107	35,345
992,313	183,29913
992,52	-41,59224
992,727	53,09963
992,933	-2,13714
993,14	92,55424
993,347	-77,10202
993,553	126,0905
993,76	339,14169
993,966	185,27184
994,173	299,68809
994,38	270,0978
994,586	82,6906
994,793	406,21254
994,999	57,0451
995,205	197,10806
995,412	25,4813
995,618	-159,95894
995,825	341,11437
996,031	-49,48329
996,237	74,79969
996,444	100,44514
996,65	78,74515
996,856	76,77242
997,063	137,9268
997,269	57,0451
997,475	74,79969
997,681	126,0905
997,887	130,03594
998,094	-17,91916
998,3	187,24454
998,506	187,24454
998,712	-23,83742
998,918	191,18995
999,124	252,34358
999,33	-114,58478
999,536	62,9633
999,742	114,25419
999,948	84,66333
1000,154	161,59935
1000,36	112,28147
1000,566	114,25419
1000,772	151,7358
1000,978	145,81766
1001,184	305,60614
1001,389	341,11437
1001,595	135,95409
1001,801	191,18995
1002,007	1,80835
1002,212	-122,47591
1002,418	226,69856
1002,624	-100,77532
1002,83	-25,81018
1003,035	175,40831
1003,241	60,99057
1003,447	421,99387
1003,652	147,79037
1003,858	130,03594
1004,063	80,71788
1004,269	153,70851
1004,474	246,42551
1004,68	106,3633
1004,885	171,46289
1005,091	-37,64672
1005,296	13,64483
1005,502	171,46289
1005,707	104,39058
1005,912	220,78046
1006,118	210,91697
1006,323	130,03594
1006,528	228,67125
1006,734	329,2783
1006,939	98,47241
1007,144	276,01586
1007,35	64,93604
1007,555	-59,34711
1007,76	137,9268
1007,965	1,80835
1008,17	90,58151
1008,375	72,82696
1008,581	-2,13714
1008,786	17,59032
1008,991	124,11778
1009,196	5,75385
1009,401	191,18995
1009,606	70,85423
1009,811	135,95409
1010,016	55,07237
1010,221	347,0324
1010,426	-17,91916
1010,63	220,78046
1010,835	-81,04757
1011,04	-173,76854
1011,245	489,06432
1011,45	55,07237
1011,655	-86,96588
1011,859	248,3982
1012,064	252,34358
1012,269	74,79969
1012,474	-94,85698
1012,678	173,4356
1012,883	-96,82976
1013,088	3,7811
1013,292	108,33603
1013,497	114,25419
1013,702	-197,44221
1013,906	39,29048
1014,111	226,69856
1014,315	-161,93174
1014,52	-6,08264
1014,724	62,9633
1014,929	59,01784
1015,133	118,19963
1015,338	-10,02815
1015,542	210,91697
1015,746	-63,29264
1015,951	518,65414
1016,155	126,0905
1016,359	59,01784
1016,564	-63,29264
1016,768	82,6906
1016,972	-12,0009
1017,176	-102,74809
1017,381	167,51748
1017,585	382,54052
1017,789	416,07587
1017,993	-29,75569
1018,197	-43,565
1018,401	5,75385
1018,606	246,42551
1018,81	193,16266
1019,014	-29,75569
1019,218	408,18521
1019,422	39,29048
1019,626	151,7358
1019,83	-2,13714
1020,034	9,69934
1020,238	173,4356
1020,441	110,30875
1020,645	84,66333
1020,849	161,59935
1021,053	-2,13714
1021,257	232,61665
1021,461	-8,0554
1021,664	62,9633
1021,868	376,6225
1022,072	244,45281
1022,276	-49,48329
1022,479	315,46955
1022,683	189,21725
1022,887	204,99887
1023,09	39,29048
1023,294	157,65393
1023,498	185,27184
1023,701	98,47241
1023,905	201,05347
1024,108	47,18143
1024,312	-142,20379
1024,515	175,40831
1024,719	72,82696
1024,922	124,11778
1025,126	185,27184
1025,329	358,86845
1025,532	139,89952
1025,736	-45,53776
1025,939	106,3633
1026,142	139,89952
1026,346	412,13054
1026,549	86,63606
1026,752	147,79037
1026,956	329,2783
1027,159	39,29048
1027,362	108,33603
1027,565	126,0905
1027,768	204,99887
1027,971	390,4312
1028,175	114,25419
1028,378	-43,565
1028,581	358,86845
1028,784	-114,58478
1028,987	163,57206
1029,19	-100,77532
1029,393	-17,91916
1029,596	5,75385
1029,799	360,84112
1030,002	173,4356
1030,205	29,42678
1030,408	441,7205
1030,61	15,61758
1030,813	141,87223
1031,016	122,14507
1031,219	212,88967
1031,422	35,345
1031,624	307,57882
1031,827	181,32643
1032,03	-17,91916
1032,233	-55,40158
1032,435	120,17235
1032,638	461,44711
1032,841	374,64983
1033,043	133,98137
1033,246	189,21725
1033,448	41,26322
1033,651	297,7154
1033,853	214,86237
1034,056	165,54477
1034,258	98,47241
1034,461	297,7154
1034,663	55,07237
1034,866	132,00865
1035,068	189,21725
1035,271	13,64483
1035,473	185,27184
1035,675	212,88967
1035,878	169,49019
1036,08	-12,0009
1036,282	62,9633
1036,484	475,25572
1036,687	189,21725
1036,889	-53,42881
1037,091	309,5515
1037,293	153,70851
1037,495	88,60879
1037,698	-43,565
1037,9	92,55424
1038,102	274,04317
1038,304	554,16185
1038,506	349,00508
1038,708	159,62664
1038,91	35,345
1039,112	299,68809
1039,314	-6,08264
1039,516	171,46289
1039,718	116,22691
1039,92	128,06322
1040,122	-47,51053
1040,323	88,60879
1040,525	47,18143
1040,727	173,4356
1040,929	-112,612
1041,131	469,33775
1041,333	238,53473
1041,534	133,98137
1041,736	358,86845
1041,938	141,87223
1042,139	250,37089
1042,341	277,98855
1042,543	-201,38784
1042,744	329,2783
1042,946	-12,0009
1043,147	82,6906
1043,349	242,48012
1043,55	120,17235
1043,752	244,45281
1043,953	-29,75569
1044,155	210,91697
1044,356	47,18143
1044,558	187,24454
1044,759	-138,25821
1044,961	72,82696
1045,162	86,63606
1045,363	374,64983
1045,565	-169,82294
1045,766	167,51748
1045,967	-17,91916
1046,168	347,0324
1046,37	143,84494
1046,571	13,64483
1046,772	-88,93866
1046,973	500,90026
1047,174	47,18143
1047,376	-25,81018
1047,577	228,67125
1047,778	133,98137
1047,979	218,80777
1048,18	232,61665
1048,381	-27,78293
1048,582	493,00963
1048,783	268,12511
1048,984	193,16266
1049,185	498,9276
1049,386	246,42551
1049,587	250,37089
1049,788	212,88967
1049,988	124,11778
1050,189	112,28147
1050,39	151,7358
1050,591	-4,10989
1050,792	149,76308
1050,992	86,63606
1051,193	-25,81018
1051,394	226,69856
1051,594	5,75385
1051,795	86,63606
1051,996	19,56307
1052,196	110,30875
1052,397	-102,74809
1052,598	90,58151
1052,798	90,58151
